1565081774.00
64.000000
-0.00
-0.00
-0.00
-0.00
-0.00
-0.00
-0.00
-0.00
-0.00
-0.00
0.00
0.01
0.01
-0.00
-0.03
-0.05
-0.05
0.00
0.13
0.36
0.66
1.01
1.37
1.72
2.06
2.40
2.79
3.24
3.80
4.42
5.06
5.66
6.20
6.68
7.15
7.68
8.31
9.14
10.09
11.04
11.88
12.56
13.14
13.76
14.65
15.96
17.91
20.32
22.90
25.38
27.58
29.57
31.68
34.32
37.81
42.54
48.15
54.10
59.83
64.97
69.58
74.14
79.34
85.71
93.76
103.00
112.62
121.73
129.77
136.75
143.30
150.75
157.77
166.64
177.95
191.79
206.97
220.57
228.25
225.36
208.53
176.87
132.76
80.05
23.07
-34.94
-92.44
-149.16
-205.23
-260.37
-313.74
-363.87
-409.83
-450.91
-486.50
-515.74
-537.23
-549.22
-549.96
-538.37
-514.21
-478.67
-433.88
-382.45
-327.02
-269.84
-212.63
-156.66
-102.95
-52.37
-5.90
35.58
71.43
101.35
125.50
144.38
158.69
169.15
176.37
180.75
182.57
182.07
179.51
175.23
169.65
163.18
156.15
148.81
141.30
133.69
126.02
118.33
110.69
103.16
95.80
88.68
81.83
75.25
68.95
62.95
57.25
51.86
46.78
42.03
37.59
33.45
29.61
26.07
22.81
19.83
17.11
14.67
12.48
10.54
8.83
7.35
6.07
4.97
4.05
3.27
2.62
2.09
1.65
1.30
1.01
0.79
0.61
0.48
0.37
0.29
0.24
0.20
0.18
0.17
0.17
0.18
0.20
0.23
0.26
0.30
0.34
0.38
0.42
0.47
0.52
0.57
0.62
0.67
0.73
0.79
0.86
0.93
1.01
1.10
1.20
1.31
1.43
1.57
1.73
1.90
2.09
2.31
2.55
2.81
3.10
3.42
3.77
4.16
4.58
5.03
5.52
6.05
6.62
7.23
7.89
8.58
9.32
10.10
10.93
11.81
12.75
13.74
14.79
15.88
17.01
18.15
19.30
20.44
21.57
22.61
23.51
24.13
24.32
23.93
22.85
21.01
18.41
15.13
11.24
6.91
2.31
-2.40
-7.06
-11.47
-15.48
-18.88
-21.53
-23.32
-24.28
-24.53
-24.30
-23.85
-23.38
-22.97
-22.58
-22.05
-21.24
-20.13
-18.84
-17.68
-16.95
-16.85
-17.35
-18.17
-18.91
-19.21
-18.95
-18.35
-17.86
-17.99
-19.08
-21.06
-23.53
-25.89
-27.64
-28.58
-28.92
-29.15
-29.82
-31.43
-34.40
-38.97
-44.93
-51.36
-56.42
-57.82
-53.50
-42.69
-26.50
-7.78
9.90
23.55
31.72
34.69
33.73
30.36
25.70
20.47
15.30
11.13
9.12
10.23
15.21
23.38
33.10
42.34
49.39
53.41
54.43
53.14
50.31
46.55
42.07
36.92
31.19
25.13
19.17
13.83
9.56
6.66
5.18
4.88
5.37
6.14
6.78
6.93
6.45
5.38
3.84
2.06
0.16
-1.74
-3.59
-5.36
-7.03
-8.62
-10.12
-11.57
-12.94
-14.25
-15.46
-16.55
-17.52
-18.34
-19.11
-19.90
-20.85
-22.05
-23.65
-25.82
-28.79
-32.71
-37.53
-42.75
-47.46
-50.47
-50.63
-47.26
-40.32
-30.52
-18.97
-6.90
4.62
14.87
23.37
29.86
34.23
36.44
36.67
35.24
32.71
29.71
26.89
24.74
23.47
23.09
23.40
24.21
25.28
26.42
27.39
27.95
27.79
26.72
24.69
21.83
18.36
14.48
10.28
5.82
1.15
-3.59
-8.19
-12.46
-16.36
-19.99
-23.54
-27.21
-31.06
-35.07
-39.08
-42.99
-46.74
-50.40
-54.14
-58.17
-62.66
-67.63
-72.85
-77.79
-81.63
-83.45
-82.44
-78.12
-70.54
-60.23
-48.11
-35.20
-22.46
-10.65
-0.25
8.46
15.32
20.28
23.37
24.63
24.15
22.03
18.42
13.62
8.15
2.73
-1.80
-4.78
-5.91
-5.38
-3.80
-1.86
-0.06
1.54
3.21
5.52
8.87
13.38
18.75
24.33
29.41
33.42
36.16
37.77
38.70
39.41
40.24
41.30
42.46
43.60
44.75
46.19
48.30
51.38
55.35
59.71
63.76
66.87
68.86
70.01
71.04
72.72
75.65
80.13
86.09
93.19
100.81
107.97
113.40
115.67
113.66
106.95
96.10
82.39
67.47
52.69
38.88
26.25
14.78
4.57
-4.06
-10.63
-14.87
-16.92
-17.43
-17.28
-17.24
-17.71
-18.64
-19.70
-20.53
-21.02
-21.28
-21.61
-22.32
-23.65
-25.68
-28.41
-31.80
-35.73
-39.96
-44.23
-48.24
-51.84
-55.01
-57.90
-60.65
-63.35
-65.92
-68.20
-70.12
-71.70
-73.21
-75.03
-77.56
-81.04
-85.41
-90.27
-94.88
-98.32
-99.66
-98.26
-93.89
-86.84
-77.86
-67.92
-57.98
-48.77
-40.68
-33.74
-27.81
-22.75
-18.54
-15.22
-12.82
-11.20
-9.96
-8.59
-6.50
-3.26
1.44
7.73
15.49
24.29
33.24
41.19
46.95
49.81
49.79
47.74
44.94
42.59
41.36
41.09
41.09
40.41
38.33
34.58
29.39
23.33
17.05
11.14
5.95
1.62
-1.94
-4.99
-7.86
-10.88
-14.25
-17.85
-21.18
-23.40
-23.51
-20.61
-14.22
-4.36
8.42
23.20
38.95
54.77
69.96
84.06
96.62
107.05
114.51
118.04
116.99
111.35
102.00
90.52
78.77
68.26
59.82
53.51
48.83
45.17
41.97
38.85
35.52
31.71
27.16
21.74
15.50
8.70
1.76
-4.91
-10.94
-16.22
-20.84
-25.09
-29.24
-33.41
-37.35
-40.56
-42.45
-42.78
-41.88
-40.71
-40.53
-42.33
-46.37
-51.87
-57.36
-61.10
-61.76
-58.80
-52.61
-44.25
-35.10
-26.41
-19.07
-13.55
-9.95
-8.15
-7.92
-9.08
-11.42
-14.72
-18.70
-23.01
-27.31
-31.31
-34.85
-37.92
-40.60
-42.98
-45.08
-46.92
-48.51
-50.01
-51.68
-53.80
-56.58
-60.07
-64.20
-68.87
-74.08
-79.90
-86.34
-93.13
-99.43
-103.90
-104.88
-100.97
-91.52
-77.01
-58.99
-39.72
-21.50
-6.09
5.62
13.68
18.74
21.75
23.63
25.14
26.94
29.57
33.51
39.09
46.40
55.22
65.09
75.33
85.17
93.76
100.13
103.38
102.77
98.05
89.61
78.59
66.59
55.25
45.80
38.81
34.29
31.90
31.38
32.61
35.67
40.63
47.41
55.70
64.80
73.65
80.85
84.84
84.27
78.37
67.26
52.00
34.33
16.17
-0.75
-15.25
-26.76
-35.35
-41.66
-46.69
-51.66
-57.54
-64.69
-72.60
-79.92
-84.82
-85.61
-81.22
-71.51
-57.26
-39.84
-20.90
-2.03
15.44
30.66
43.34
53.68
62.18
69.23
74.74
78.02
78.09
74.24
66.63
56.56
46.08
37.24
31.25
28.20
27.32
27.51
28.00
28.50
28.97
29.30
29.13
27.98
25.43
21.46
16.39
10.81
5.36
0.64
-2.87
-4.89
-5.61
-5.71
-6.31
-8.60
-13.34
-20.54
-29.53
-39.26
-48.78
-57.44
-64.80
-70.26
-72.97
-71.88
-66.28
-56.24
-42.78
-27.65
-12.80
0.11
9.92
16.02
18.37
17.45
14.38
10.76
8.22
7.83
9.61
12.53
15.03
15.95
15.03
12.95
10.83
9.33
8.33
6.96
4.25
-0.07
-5.40
-10.49
-14.29
-16.57
-18.22
-20.74
-25.46
-32.75
-41.86
-51.27
-59.35
-65.15
-68.46
-69.76
-69.69
-68.84
-67.59
-66.26
-65.16
-64.46
-64.08
-63.47
-61.67
-57.37
-49.17
-36.07
-17.77
4.84
29.60
53.44
73.16
86.45
92.57
92.54
88.52
82.86
77.20
72.20
67.73
63.44
59.32
55.71
53.16
51.88
51.67
51.88
51.87
51.28
50.18
48.88
47.64
46.50
45.35
44.13
43.09
42.60
42.80
43.22
42.74
40.05
34.35
25.90
15.98
6.31
-1.70
-7.56
-11.59
-14.46
-16.63
-18.06
-18.43
-17.66
-16.27
-15.37
-16.16
-19.29
-24.27
-29.56
-33.04
-32.82
-27.92
-18.55
-6.02
7.77
20.73
30.98
36.96
37.70
32.93
23.24
10.06
-4.73
-19.21
-31.99
-42.34
-50.06
-55.11
-57.32
-56.28
-51.63
-43.48
-32.71
-21.05
-10.68
-3.56
-0.84
-2.41
-7.04
-12.85
-18.05
-21.56
-23.15
-23.29
-22.59
-21.50
-20.12
-18.51
-16.81
-15.58
-15.55
-17.31
-21.02
-26.23
-32.09
-37.68
-42.50
-46.58
-50.37
-54.28
-58.15
-61.13
-61.88
-59.09
-52.06
-41.00
-26.83
-10.78
6.12
23.28
40.27
56.77
72.22
85.95
97.29
105.72
110.89
112.51
110.32
104.24
94.66
82.53
69.33
56.59
45.48
36.47
29.37
23.66
18.80
14.47
10.56
6.96
3.61
0.43
-2.55
-5.31
-7.92
-10.71
-14.27
-19.27
-26.17
-34.95
-45.17
-56.07
-66.90
-77.03
-86.10
-93.90
-100.40
-105.81
-110.57
-115.51
-121.61
-129.83
-140.74
-154.11
-168.67
-182.09
-191.49
-194.06
-188.00
-173.10
-150.80
-123.74
-94.99
-67.22
-42.33
-21.49
-5.22
6.34
13.46
16.92
17.97
18.17
18.90
21.06
24.85
29.97
35.85
42.02
48.15
54.02
59.47
64.25
68.20
71.29
73.69
75.66
77.31
78.56
79.04
78.39
76.38
73.14
69.05
64.60
60.13
55.77
51.47
47.12
42.72
38.41
34.48
31.18
28.59
26.56
24.72
22.60
19.78
16.01
11.33
6.15
1.18
-2.70
-4.50
-3.41
1.10
9.13
20.28
33.62
47.93
61.93
74.62
85.44
94.17
100.75
104.97
106.41
104.63
99.50
91.46
81.56
71.14
61.37
52.95
46.03
40.39
35.80
32.05
29.00
26.43
24.04
21.53
18.76
15.80
12.92
10.37
8.17
6.15
4.06
1.71
-0.94
-3.85
-6.99
-10.38
-13.99
-17.65
-21.00
-23.61
-25.27
-26.11
-26.70
-27.82
-30.20
-34.26
-39.96
-46.80
-53.95
-60.39
-65.05
-66.98
-65.49
-60.40
-52.11
-41.72
-30.78
-20.92
-13.48
-9.13
-7.86
-9.17
-12.35
-16.83
-22.23
-28.31
-34.84
-41.48
-47.70
-52.97
-56.86
-59.16
-60.02
-59.90
-59.49
-59.54
-60.67
-63.18
-66.99
-71.63
-76.35
-80.17
-82.08
-81.17
-76.88
-69.33
-59.30
-48.18
-37.54
-28.64
-22.13
-17.87
-15.27
-13.58
-12.21
-10.93
-9.86
-9.34
-9.82
-11.60
-14.65
-18.41
-21.77
-23.26
-21.53
-15.82
-6.26
6.23
20.20
34.20
47.09
58.18
67.18
74.05
78.84
81.67
82.75
82.32
80.68
78.09
74.83
71.19
67.46
63.98
61.02
58.75
57.16
56.14
55.47
54.90
54.17
53.02
51.21
48.57
45.07
40.88
36.29
31.66
27.27
23.25
19.54
16.02
12.61
9.30
6.25
3.61
1.50
-0.15
-1.58
-3.28
-5.83
-9.76
-15.27
-22.05
-29.22
-35.49
-39.58
-40.52
-38.03
-32.52
-24.93
-16.53
-8.52
-1.85
2.89
5.40
5.67
3.83
0.14
-5.02
-11.09
-17.30
-22.83
-26.94
-29.19
-29.47
-27.97
-25.07
-21.19
-16.79
-12.36
-8.45
-5.61
-4.21
-4.34
-5.75
-8.05
-10.81
-13.78
-16.81
-19.86
-22.77
-25.19
-26.72
-26.92
-25.62
-22.82
-18.77
-13.78
-8.15
-2.19
3.76
9.25
13.83
17.11
19.06
20.11
21.10
23.01
26.56
31.98
38.91
46.61
54.25
61.19
67.02
71.51
74.37
75.26
73.86
69.97
63.82
55.96
47.22
38.41
30.13
22.78
16.64
11.98
9.06
8.02
8.69
10.55
12.78
14.43
14.73
13.28
10.13
5.67
0.58
-4.42
-8.85
-12.45
-15.37
-17.95
-20.57
-23.42
-26.45
-29.49
-32.36
-35.08
-37.78
-40.66
-43.89
-47.56
-51.68
-56.15
-60.67
-64.59
-66.97
-66.79
-63.33
-56.50
-47.04
-36.26
-25.71
-16.71
-10.00
-5.79
-3.81
-3.60
-4.62
-6.33
-8.21
-9.75
-10.52
-10.22
-8.85
-6.61
-3.88
-1.06
1.63
4.10
6.41
8.57
10.53
12.10
12.97
12.87
11.58
9.09
5.60
1.57
-2.42
-5.87
-8.50
-10.40
-12.01
-13.93
-16.65
-20.36
-24.71
-29.00
-32.24
-33.45
-31.89
-27.19
-19.47
-9.26
2.46
14.54
25.81
35.33
42.54
47.37
50.14
51.39
51.70
51.46
50.88
50.07
49.12
48.34
48.09
48.80
50.71
53.80
57.85
62.51
67.39
72.02
75.75
77.75
77.25
73.86
67.87
60.26
52.29
44.98
38.48
32.03
24.19
13.57
-0.40
-17.12
-34.80
-51.07
-63.62
-70.93
-72.50
-68.85
-61.17
-50.92
-39.64
-28.79
-19.81
-14.05
-12.59
-15.86
-23.39
-33.76
-44.79
-54.14
-59.88
-61.08
-57.93
-51.63
-43.97
-36.73
-31.22
-27.98
-26.83
-27.13
-28.11
-29.24
-30.29
-31.48
-33.34
-36.60
-41.88
-49.35
-58.57
-68.41
-77.47
-84.58
-89.18
-91.34
-91.48
-89.90
-86.48
-80.72
-72.13
-60.71
-47.10
-32.43
-17.81
-3.93
9.13
21.60
33.64
45.06
55.38
64.21
71.59
78.06
84.23
90.16
94.89
96.53
93.07
83.29
67.56
47.85
26.99
7.76
-8.06
-19.95
-28.49
-34.78
-40.05
-45.26
-51.06
-57.71
-64.88
-71.58
-76.10
-76.26
-69.98
-56.20
-35.55
-10.57
14.72
35.95
49.80
55.05
52.77
45.71
36.98
28.74
21.54
14.53
6.41
-3.49
-14.41
-24.30
-30.47
-30.67
-23.83
-10.22
8.69
30.68
53.10
73.10
87.78
94.65
92.21
80.67
62.17
40.43
19.72
3.55
-6.28
-10.09
-9.71
-7.44
-4.83
-2.02
2.32
10.35
24.07
44.51
71.28
102.76
136.37
168.79
196.03
213.54
216.83
202.80
171.37
126.36
75.12
26.30
-13.01
-39.64
-54.78
-62.29
-65.90
-67.01
-64.34
-55.37
-38.66
-15.48
10.33
33.70
50.22
57.30
54.28
41.81
21.07
-6.45
-38.79
-73.14
-105.93
-133.40
-152.47
-161.48
-160.41
-150.58
-134.17
-113.67
-91.53
-70.05
-51.19
-36.45
-26.65
-21.70
-20.78
-22.52
-25.53
-28.74
-31.57
-33.78
-35.21
-35.70
-35.08
-33.41
-31.17
-29.16
-28.25
-29.08
-31.79
-36.09
-41.52
-47.59
-53.77
-59.24
-62.67
-62.41
-57.15
-46.70
-32.44
-16.96
-3.01
7.91
16.16
23.61
32.25
42.82
54.18
63.76
68.86
67.86
60.84
49.25
35.27
21.07
8.43
-1.40
-7.90
-11.28
-12.55
-12.97
-13.29
-12.85
-9.37
0.33
18.68
45.58
77.50
107.94
129.38
135.94
125.56
100.84
67.93
34.21
5.89
-13.66
-23.90
-25.94
-21.11
-9.73
8.92
36.03
71.86
114.41
158.62
196.93
220.84
223.24
200.85
155.44
93.42
23.70
-45.05
-106.67
-158.28
-199.70
-232.21
-257.43
-277.00
-292.77
-307.21
-323.11
-342.51
-365.25
-388.72
-408.77
-422.00
-427.79
-428.45
-427.37
-426.21
-423.23
-414.07
-394.44
-362.92
-321.93
-276.34
-230.50
-185.92
-141.20
-93.97
-43.30
9.14
60.24
107.54
150.99
192.78
235.49
279.80
323.32
361.11
388.03
401.16
400.96
390.82
375.08
356.72
336.35
312.70
284.39
251.61
216.71
183.33
154.85
133.12
118.18
108.88
103.77
101.64
101.40
101.94
101.99
100.35
96.33
89.97
81.91
72.79
62.95
52.24
40.50
27.90
15.38
4.49
-3.06
-5.99
-3.94
2.45
11.70
22.05
31.92
40.29
46.73
51.27
54.10
55.34
54.99
52.93
49.18
43.98
37.91
31.79
26.59
23.27
22.47
24.35
28.50
33.96
39.61
44.50
48.19
50.67
52.17
52.76
52.24
50.30
46.81
42.11
36.97
32.27
28.66
26.32
24.94
24.02
23.18
22.26
21.38
20.68
20.23
19.91
19.46
18.57
17.01
14.74
11.86
8.65
5.37
2.18
-1.05
-4.74
-9.48
-15.70
-23.38
-31.78
-39.55
-45.08
-47.00
-44.65
-38.27
-28.88
-18.04
-7.31
2.01
9.19
13.96
16.52
17.26
16.68
15.21
13.17
10.85
8.45
6.21
4.33
2.98
2.28
2.18
2.56
3.16
3.69
3.91
3.70
3.04
2.09
1.08
0.16
-0.48
-0.81
-0.84
-0.67
-0.49
-0.55
-1.13
-2.38
-4.28
-6.60
-8.97
-11.07
-12.75
-14.13
-15.37
-16.60
-17.62
-17.95
-16.91
-13.93
-8.80
-1.77
6.36
14.62
21.96
27.62
31.20
32.60
31.98
29.66
26.09
21.78
17.33
13.29
10.07
7.88
6.72
6.42
6.75
7.43
8.15
8.64
8.66
8.09
6.95
5.41
3.65
1.77
-0.26
-2.55
-5.18
-8.16
-11.34
-14.50
-17.51
-20.35
-23.10
-25.83
-28.48
-30.88
-32.83
-34.33
-35.63
-37.31
-39.91
-43.73
-48.45
-53.20
-56.73
-57.89
-56.05
-51.19
-43.97
-35.31
-26.24
-17.56
-9.89
-3.63
1.01
3.95
5.29
5.22
4.11
2.37
0.38
-1.50
-3.05
-4.15
-4.85
-5.26
-5.52
-5.72
-5.88
-6.07
-6.40
-7.13
-8.52
-10.77
-13.93
-17.97
-22.88
-28.73
-35.68
-43.81
-52.96
-62.65
-72.28
-81.29
-89.46
-96.90
-103.91
-110.75
-117.51
-124.16
-130.61
-136.97
-143.53
-150.51
-157.90
-165.06
-170.81
-173.59
-171.97
-164.94
-152.31
-134.68
-113.22
-89.51
-65.13
-41.53
-19.89
-1.07
14.40
26.34
34.95
40.79
44.67
47.58
50.35
53.55
57.34
61.52
65.65
69.28
72.16
74.22
75.60
76.46
76.86
76.76
75.98
74.34
71.70
68.11
63.79
59.13
54.61
50.57
47.14
44.17
41.41
38.58
35.65
32.77
30.13
27.76
25.30
22.16
17.70
11.60
4.10
-3.91
-11.15
-16.31
-18.37
-16.98
-12.40
-5.45
2.81
11.33
19.26
26.03
31.23
34.68
36.18
35.73
33.40
29.49
24.52
19.22
14.42
10.79
8.74
8.19
8.69
9.60
10.38
10.81
10.89
10.72
10.20
9.07
6.95
3.71
-0.43
-4.94
-9.20
-12.81
-15.72
-18.20
-20.63
-23.31
-26.39
-29.97
-34.14
-38.91
-44.13
-49.18
-53.18
-55.12
-54.22
-50.18
-43.32
-34.44
-24.53
-14.55
-5.28
2.73
9.16
13.81
16.64
17.74
17.32
15.73
13.38
10.74
8.27
6.34
5.19
4.84
5.18
6.07
7.41
9.11
11.01
12.78
13.94
14.05
12.81
10.26
6.76
2.80
-1.21
-5.05
-8.77
-12.55
-16.59
-21.08
-26.13
-31.72
-37.52
-42.90
-46.96
-48.69
-47.37
-42.78
-35.31
-25.84
-15.45
-5.23
3.97
11.52
17.02
20.32
21.53
20.98
19.17
16.68
14.05
11.71
10.02
9.26
9.59
11.06
13.59
16.92
20.71
24.52
27.96
30.66
32.38
33.00
32.64
31.62
30.34
29.22
28.42
27.87
27.17
25.90
23.72
20.62
17.00
13.51
11.00
10.24
11.87
16.22
23.38
33.02
44.43
56.57
68.18
78.13
85.57
90.18
92.06
91.64
89.47
86.05
81.75
76.76
71.25
65.38
59.42
53.78
48.84
44.87
41.79
39.28
36.74
33.71
29.94
25.49
20.65
15.71
10.86
6.13
1.48
-3.18
-7.98
-13.12
-18.83
-25.28
-32.31
-39.39
-45.62
-49.98
-51.65
-50.30
-46.21
-40.13
-33.11
-26.31
-20.75
-17.15
-15.89
-16.95
-20.02
-24.63
-30.28
-36.47
-42.74
-48.58
-53.40
-56.70
-58.12
-57.69
-55.84
-53.21
-50.49
-48.07
-45.98
-43.96
-41.69
-39.04
-36.18
-33.48
-31.41
-30.25
-30.07
-30.72
-32.02
-33.78
-35.73
-37.48
-38.39
-37.66
-34.62
-28.97
-20.99
-11.47
-1.46
8.06
16.50
23.58
29.30
33.64
36.43
37.41
36.42
33.62
29.62
25.34
21.82
19.93
20.12
22.41
26.45
31.63
37.10
41.85
44.78
44.93
41.69
35.04
25.62
14.55
3.13
-7.60
-17.12
-25.52
-33.30
-40.93
-48.53
-55.60
-61.25
-64.46
-64.59
-61.58
-56.07
-49.16
-42.00
-35.51
-30.18
-26.04
-22.84
-20.26
-18.12
-16.48
-15.56
-15.38
-15.58
-15.32
-13.59
-9.69
-3.65
3.66
10.99
17.23
21.96
25.42
28.26
30.94
33.53
35.70
37.07
37.52
37.15
36.21
34.82
32.96
30.67
28.15
25.98
24.94
25.88
29.29
35.24
43.30
52.64
62.35
71.50
79.48
85.93
90.85
94.52
97.33
99.75
102.12
104.59
106.97
108.71
108.98
106.94
101.98
94.00
83.43
71.03
57.63
43.78
29.75
15.56
1.22
-13.14
-27.13
-40.24
-51.87
-61.44
-68.44
-72.42
-73.10
-70.49
-64.99
-57.46
-48.99
-40.77
-33.67
-28.17
-24.25
-21.65
-20.11
-19.50
-19.83
-21.15
-23.31
-25.93
-28.45
-30.36
-31.35
-31.45
-30.90
-30.01
-29.00
-28.02
-27.12
-26.41
-26.11
-26.48
-27.81
-30.32
-34.11
-39.12
-45.11
-51.57
-57.71
-62.57
-65.14
-64.70
-60.95
-54.17
-45.15
-34.95
-24.64
-15.14
-7.09
-0.79
3.64
6.24
7.15
6.55
4.80
2.31
-0.34
-2.65
-4.18
-4.70
-4.15
-2.70
-0.76
1.11
2.18
1.81
-0.46
-4.70
-10.59
-17.56
-25.06
-32.82
-40.94
-49.74
-59.50
-70.13
-81.05
-91.24
-99.50
-104.72
-106.20
-103.71
-97.56
-88.49
-77.55
-65.98
-54.89
-45.12
-36.95
-30.14
-24.05
-17.96
-11.37
-4.18
3.31
10.62
17.29
23.07
28.00
32.31
36.25
39.90
43.17
45.71
47.20
47.42
46.40
44.42
41.77
38.64
35.01
30.72
25.66
19.92
13.80
7.71
1.91
-3.70
-9.41
-15.66
-22.60
-29.99
-37.04
-42.65
-45.63
-45.03
-40.46
-32.05
-20.59
-7.24
6.63
19.77
31.24
40.51
47.39
51.93
54.29
54.69
53.47
51.08
48.13
45.26
43.01
41.65
41.18
41.40
41.94
42.53
42.91
42.93
42.45
41.35
39.60
37.24
34.42
31.31
27.99
24.43
20.45
15.95
10.91
5.59
0.37
-4.34
-8.33
-11.64
-14.58
-17.61
-21.17
-25.59
-30.87
-36.68
-42.22
-46.40
-48.04
-46.11
-40.20
-30.59
-18.28
-4.67
8.83
21.10
31.42
39.50
45.35
49.20
51.43
52.47
52.70
52.33
51.42
49.96
48.08
46.21
44.97
45.11
47.06
50.80
55.82
61.28
66.33
70.33
72.97
74.15
74.00
72.64
70.15
66.56
61.77
55.72
48.35
39.76
30.18
20.02
9.80
-0.00
-9.00
-17.01
-24.10
-30.50
-36.56
-42.53
-48.41
-53.69
-57.30
-57.76
-53.70
-44.35
-30.07
-12.48
5.89
22.29
34.57
41.61
43.53
41.28
36.26
29.80
22.96
16.50
10.88
6.40
3.20
1.29
0.56
0.79
1.73
3.11
4.70
6.33
7.92
9.40
10.68
11.57
11.71
10.75
8.47
5.00
0.78
-3.50
-7.25
-10.23
-12.56
-14.70
-17.09
-19.95
-23.20
-26.57
-29.79
-32.79
-35.74
-38.93
-42.68
-47.09
-52.03
-57.02
-61.30
-63.96
-64.05
-60.98
-54.63
-45.59
-34.94
-24.05
-14.19
-6.20
-0.44
3.18
4.94
5.15
4.09
2.06
-0.54
-3.22
-5.45
-6.86
-7.26
-6.76
-5.51
-3.73
-1.57
0.91
3.58
6.30
8.80
10.83
12.11
12.54
12.10
10.91
9.19
7.11
4.85
2.45
-0.15
-3.06
-6.34
-9.92
-13.58
-17.04
-20.07
-22.58
-24.68
-26.61
-28.75
-31.45
-34.96
-39.39
-44.49
-49.63
-53.77
-55.73
-54.50
-49.59
-41.30
-30.58
-18.79
-7.29
2.87
11.10
17.27
21.50
24.06
25.13
24.90
23.50
21.19
18.38
15.63
13.49
12.41
12.45
13.38
14.79
16.31
17.83
19.36
20.98
22.63
23.97
24.59
24.14
22.52
19.95
16.87
13.75
10.92
8.46
6.23
3.91
1.26
-1.91
-5.61
-9.62
-13.64
-17.40
-20.75
-23.75
-26.62
-29.69
-33.28
-37.64
-42.84
-48.72
-54.77
-60.08
-63.54
-64.06
-60.98
-54.32
-44.90
-34.07
-23.35
-14.00
-6.69
-1.57
1.60
3.11
3.14
1.80
-0.85
-4.64
-9.14
-13.71
-17.60
-20.15
-20.97
-20.05
-17.71
-14.42
-10.69
-6.89
-3.34
-0.32
1.88
3.06
3.15
2.35
1.07
-0.19
-1.12
-1.66
-2.03
-2.59
-3.60
-5.10
-6.90
-8.64
-10.01
-10.93
-11.64
-12.68
-14.68
-18.04
-22.67
-27.89
-32.50
-35.10
-34.50
-30.10
-21.99
-11.01
1.50
14.03
25.20
33.99
39.88
42.88
43.37
41.99
39.40
36.16
32.71
29.43
26.68
24.86
24.31
25.18
27.33
30.31
33.48
36.19
37.99
38.66
38.24
36.81
34.48
31.38
27.63
23.41
18.89
14.13
9.13
3.81
-1.83
-7.58
-13.18
-18.29
-22.80
-26.77
-30.53
-34.43
-38.82
-43.80
-49.26
-54.71
-59.31
-62.02
-61.74
-57.77
-49.98
-39.02
-26.09
-12.65
0.01
11.01
19.95
26.74
31.44
34.17
34.99
34.10
31.81
28.58
24.93
21.34
18.19
15.69
13.96
13.12
13.27
14.51
16.77
19.79
23.03
25.87
27.73
28.27
27.53
25.81
23.57
21.24
19.13
17.37
15.96
14.82
13.83
12.90
12.03
11.31
10.94
11.19
12.20
13.93
16.01
17.81
18.78
18.61
17.53
16.30
16.02
17.66
21.68
27.85
35.24
42.72
49.26
54.33
57.90
60.23
61.62
62.26
62.10
60.93
58.49
54.52
48.86
41.50
32.70
23.01
13.14
3.87
-4.29
-11.09
-16.55
-20.76
-23.73
-25.41
-25.71
-24.72
-22.71
-20.07
-17.15
-14.17
-11.26
-8.57
-6.42
-5.32
-5.77
-8.07
-12.06
-17.12
-22.40
-27.16
-31.01
-34.07
-36.79
-39.73
-43.29
-47.49
-51.98
-56.05
-58.87
-59.61
-57.70
-52.93
-45.51
-36.00
-25.24
-14.20
-3.82
5.02
11.71
15.94
17.79
17.73
16.42
14.60
12.74
11.10
9.72
8.61
7.87
7.71
8.39
9.99
12.38
15.15
17.80
19.87
21.11
21.47
21.07
20.01
18.33
16.05
13.18
9.92
6.57
3.47
0.83
-1.43
-3.57
-5.94
-8.72
-11.83
-14.91
-17.52
-19.49
-20.93
-22.28
-24.11
-26.84
-30.47
-34.57
-38.31
-40.68
-40.77
-38.00
-32.34
-24.19
-14.42
-4.06
5.83
14.41
21.09
25.59
27.87
28.07
26.53
23.67
20.06
16.34
13.06
10.63
9.19
8.67
8.87
9.56
10.55
11.66
12.72
13.50
13.76
13.34
12.23
10.59
8.59
6.39
3.94
1.12
-2.19
-5.92
-9.87
-13.70
-17.15
-20.15
-22.81
-25.41
-28.18
-31.25
-34.60
-38.07
-41.50
-44.60
-47.06
-48.32
-47.69
-44.42
-38.04
-28.58
-16.80
-4.08
8.00
18.06
25.39
30.02
32.54
33.70
34.08
34.00
33.47
32.54
31.31
30.07
29.19
28.98
29.61
31.07
33.22
35.72
38.16
40.05
41.03
40.86
39.49
36.95
33.29
28.58
22.93
16.65
10.12
3.73
-2.29
-7.92
-13.32
-18.66
-23.91
-28.87
-33.24
-36.85
-39.85
-42.69
-46.03
-50.28
-55.50
-61.15
-66.26
-69.61
-70.17
-67.39
-61.38
-52.91
-43.09
-33.14
-24.00
-16.32
-10.44
-6.59
-4.88
-5.29
-7.62
-11.33
-15.64
-19.69
-22.78
-24.52
-24.89
-24.06
-22.27
-19.69
-16.40
-12.49
-8.19
-3.90
-0.17
2.47
3.67
3.37
1.79
-0.60
-3.26
-5.72
-7.73
-9.30
-10.67
-12.20
-14.14
-16.63
-19.50
-22.44
-25.05
-27.07
-28.50
-29.65
-31.10
-33.40
-36.92
-41.59
-46.85
-51.71
-55.01
-55.65
-52.86
-46.49
-36.98
-25.34
-12.95
-1.15
8.96
16.74
22.06
25.22
26.71
27.08
26.82
26.26
25.66
25.23
25.19
25.73
26.98
29.01
31.71
34.85
38.08
41.04
43.45
45.09
45.82
45.61
44.53
42.73
40.51
38.23
36.24
34.87
34.30
34.66
35.98
38.28
41.58
45.79
50.73
56.02
61.11
65.43
68.53
70.22
70.64
70.09
68.90
67.23
64.99
62.01
58.13
53.29
47.58
41.16
34.12
26.55
18.59
10.44
2.42
-5.21
-12.32
-18.97
-25.32
-31.38
-36.96
-41.66
-45.11
-47.11
-47.86
-47.84
-47.69
-47.98
-49.03
-50.95
-53.65
-57.05
-61.04
-65.41
-69.79
-73.56
-76.02
-76.59
-75.01
-71.43
-66.30
-60.14
-53.43
-46.48
-39.50
-32.80
-26.75
-21.76
-18.20
-16.21
-15.68
-16.24
-17.19
-17.59
-16.44
-12.83
-6.29
3.00
14.22
26.05
37.08
46.19
52.84
57.02
59.16
59.76
59.30
58.05
56.19
53.88
51.36
49.00
47.19
46.30
46.53
47.89
50.20
53.18
56.55
60.04
63.42
66.51
69.19
71.36
73.07
74.52
75.99
77.75
79.79
81.63
82.31
80.70
75.83
67.26
55.28
40.76
24.88
8.73
-6.91
-21.61
-35.21
-47.79
-59.48
-70.39
-80.47
-89.34
-96.29
-100.41
-100.96
-97.76
-91.39
-83.10
-74.36
-66.44
-60.05
-55.32
-51.98
-49.59
-47.69
-45.85
-43.69
-40.84
-37.09
-32.44
-27.10
-21.45
-15.83
-10.49
-5.51
-0.87
3.50
7.61
11.48
15.06
18.39
21.59
24.81
28.26
32.00
35.88
39.41
42.01
43.21
42.94
41.63
39.97
38.65
38.02
37.98
38.21
38.36
38.28
37.95
37.32
36.17
34.14
31.04
27.03
22.76
19.07
16.66
15.70
15.78
16.18
16.16
15.36
13.79
11.74
9.51
7.25
4.88
2.31
-0.52
-3.41
-5.87
-7.27
-6.86
-4.18
0.90
7.94
16.03
23.96
30.49
34.68
36.05
34.65
30.94
25.54
19.13
12.28
5.48
-0.96
-6.81
-12.04
-16.66
-20.84
-24.77
-28.65
-32.64
-36.76
-40.94
-45.02
-48.83
-52.33
-55.71
-59.40
-63.89
-69.55
-76.25
-83.33
-89.53
-93.51
-94.23
-91.39
-85.59
-77.99
-69.85
-61.90
-54.10
-45.71
-35.72
-23.31
-8.19
9.29
28.26
47.45
65.34
80.34
91.01
96.42
96.47
92.14
85.04
76.95
69.09
61.81
54.69
47.03
38.43
28.98
19.24
9.83
1.16
-6.71
-13.93
-20.60
-26.69
-31.95
-36.01
-38.45
-38.84
-36.73
-31.76
-23.84
-13.44
-1.68
9.77
19.12
24.94
26.53
24.01
18.12
9.87
0.33
-9.54
-18.73
-26.23
-31.07
-32.59
-30.74
-26.14
-20.00
-13.68
-8.31
-4.37
-1.70
0.29
2.32
4.82
7.82
10.95
13.71
15.74
17.06
18.06
19.32
21.32
24.22
27.84
31.84
35.92
39.95
43.89
47.62
50.83
53.05
53.75
52.52
49.25
44.12
37.55
29.97
21.76
13.20
4.48
-4.22
-12.63
-20.36
-26.98
-32.02
-35.27
-36.81
-37.20
-37.28
-37.99
-40.01
-43.55
-48.12
-52.67
-55.72
-55.75
-51.53
-42.52
-29.20
-13.05
3.65
18.51
29.60
36.02
38.03
36.67
33.28
28.92
24.16
19.23
14.28
9.64
5.81
3.26
2.18
2.31
3.18
4.26
5.27
6.17
7.05
7.95
8.75
9.15
8.87
7.71
5.73
3.15
0.28
-2.54
-5.08
-7.25
-9.09
-10.80
-12.63
-14.82
-17.39
-20.23
-23.00
-25.38
-27.23
-28.64
-30.00
-31.79
-34.37
-37.77
-41.53
-44.76
-46.39
-45.53
-41.71
-35.11
-26.45
-16.79
-7.21
1.45
8.62
14.05
17.63
19.44
19.59
18.37
16.17
13.46
10.73
8.40
6.77
5.99
6.04
6.81
8.09
9.67
11.36
13.01
14.46
15.55
16.09
15.89
14.81
12.87
10.21
7.10
3.86
0.68
-2.36
-5.34
-8.31
-11.28
-14.15
-16.81
-19.22
-21.46
-23.76
-26.37
-29.47
-33.10
-37.11
-41.17
-44.73
-47.13
-47.66
-45.75
-41.13
-33.93
-24.73
-14.42
-4.05
5.39
13.13
18.73
22.14
23.52
23.27
21.85
19.70
17.23
14.84
12.84
11.50
11.02
11.42
12.61
14.38
16.44
18.52
20.37
21.78
22.62
22.82
22.33
21.16
19.32
16.93
14.20
11.40
8.80
6.50
4.46
2.45
0.20
-2.45
-5.46
-8.62
-11.65
-14.39
-16.89
-19.47
-22.55
-26.38
-30.95
-35.72
-39.78
-42.02
-41.54
-37.90
-31.30
-22.52
-12.65
-2.80
6.09
13.41
18.78
22.10
23.46
23.12
21.52
19.22
16.74
14.47
12.65
11.34
10.56
10.33
10.76
11.87
13.58
15.61
17.53
18.92
19.44
18.97
17.59
15.54
13.07
10.36
7.47
4.38
1.07
-2.45
-6.03
-9.40
-12.32
-14.63
-16.36
-17.80
-19.46
-21.81
-25.20
-29.60
-34.60
-39.43
-43.23
-45.18
-44.68
-41.48
-35.66
-27.69
-18.35
-8.68
0.24
7.52
12.65
15.58
16.60
16.19
14.78
12.68
10.17
7.53
5.20
3.59
3.03
3.61
5.09
7.05
9.06
10.82
12.21
13.23
13.89
14.11
13.71
12.42
10.06
6.64
2.43
-2.07
-6.28
-9.77
-12.42
-14.44
-16.30
-18.54
-21.58
-25.58
-30.42
-35.64
-40.51
-44.15
-45.60
-44.12
-39.33
-31.51
-21.49
-10.55
-0.02
8.97
15.76
20.23
22.61
23.35
22.94
21.74
20.02
17.94
15.71
13.57
11.89
10.95
10.97
11.84
13.26
14.82
16.10
16.86
17.06
16.77
16.10
15.05
13.60
11.61
9.03
5.89
2.42
-1.12
-4.43
-7.35
-9.90
-12.24
-14.72
-17.65
-21.29
-25.64
-30.41
-35.02
-38.67
-40.51
-39.90
-36.48
-30.33
-21.92
-12.07
-1.80
7.83
15.93
21.93
25.68
27.40
27.53
26.53
24.77
22.53
20.09
17.74
15.84
14.67
14.32
14.69
15.56
16.71
17.96
19.22
20.36
21.17
21.44
20.98
19.67
17.58
14.81
11.53
7.88
4.02
0.12
-3.60
-6.93
-9.75
-12.02
-13.94
-15.83
-18.10
-21.11
-25.04
-29.78
-34.85
-39.48
-42.69
-43.53
-41.32
-35.87
-27.55
-17.19
-6.00
4.76
14.00
21.00
25.44
27.43
27.42
26.05
23.99
21.82
19.91
18.39
17.25
16.44
16.01
16.13
16.95
18.50
20.58
22.88
25.00
26.67
27.79
28.29
28.14
27.23
25.50
22.96
19.88
16.66
13.72
11.35
9.58
8.20
6.89
5.34
3.36
0.89
-2.08
-5.55
-9.54
-14.15
-19.39
-25.14
-30.97
-36.18
-39.84
-41.08
-39.27
-34.26
-26.43
-16.60
-5.89
4.55
13.75
21.01
25.94
28.47
28.76
27.11
23.98
19.95
15.65
11.76
8.83
7.16
6.74
7.33
8.54
10.05
11.64
13.20
14.59
15.61
16.00
15.55
14.24
12.24
9.83
7.28
4.68
1.99
-0.96
-4.22
-7.71
-11.11
-14.08
-16.33
-17.81
-18.74
-19.50
-20.59
-22.44
-25.31
-29.22
-33.88
-38.73
-42.93
-45.53
-45.67
-42.84
-37.05
-28.88
-19.31
-9.49
-0.39
7.31
13.31
17.55
20.07
20.97
20.42
18.66
16.08
13.18
10.43
8.21
6.75
6.17
6.50
7.67
9.46
11.53
13.42
14.69
15.14
14.79
13.86
12.58
11.00
8.99
6.41
3.24
-0.26
-3.67
-6.60
-8.92
-10.83
-12.76
-15.17
-18.35
-22.33
-26.91
-31.71
-36.31
-40.26
-43.08
-44.23
-43.21
-39.65
-33.49
-25.05
-15.11
-4.71
5.05
13.26
19.37
23.21
24.98
25.00
23.66
21.34
18.41
15.30
12.45
10.26
9.01
8.80
9.49
10.75
12.25
13.67
14.79
15.46
15.55
14.97
13.65
11.72
9.39
7.02
4.96
3.39
2.32
1.59
0.97
0.24
-0.76
-2.15
-4.02
-6.43
-9.48
-13.25
-17.74
-22.79
-27.99
-32.57
-35.56
-36.02
-33.32
-27.51
-19.23
-9.66
-0.00
8.73
16.02
21.73
25.89
28.56
29.68
29.14
26.93
23.33
18.93
14.53
10.95
8.68
7.81
8.00
8.76
9.63
10.36
10.90
11.31
11.61
11.66
11.24
10.11
8.13
5.33
1.85
-2.03
-6.01
-9.80
-13.16
-15.94
-18.19
-20.13
-22.17
-24.78
-28.30
-32.79
-37.89
-42.83
-46.58
-48.09
-46.62
-41.95
-34.42
-24.87
-14.41
-4.11
5.08
12.60
18.13
21.64
23.26
23.23
21.80
19.30
16.13
12.78
9.79
7.67
6.77
7.12
8.49
10.46
12.55
14.43
15.94
17.08
17.80
18.01
17.49
16.05
13.61
10.31
6.47
2.50
-1.27
-4.59
-7.42
-9.80
-11.90
-13.95
-16.25
-19.13
-22.77
-27.15
-31.86
-36.19
-39.20
-40.01
-38.00
-33.03
-25.52
-16.27
-6.34
3.23
11.64
18.38
23.22
26.20
27.50
27.39
26.27
24.64
23.05
21.99
21.80
22.53
24.02
25.93
27.90
29.71
31.25
32.52
33.60
34.46
35.05
35.22
34.76
33.52
31.47
28.75
25.62
22.37
19.18
16.07
12.91
9.50
5.67
1.33
-3.56
-9.01
-14.87
-20.91
-26.67
-31.45
-34.53
-35.24
-33.25
-28.61
-21.83
-13.71
-5.23
2.72
9.47
14.65
18.20
20.20
20.77
20.01
18.05
15.14
11.76
8.55
6.08
4.74
4.56
5.23
6.32
7.47
8.52
9.46
10.40
11.37
12.36
13.19
13.60
13.32
12.09
9.85
6.70
2.96
-0.92
-4.53
-7.73
-10.61
-13.51
-16.86
-20.94
-25.90
-31.60
-37.72
-43.72
-48.84
-52.25
-53.07
-50.75
-45.18
-36.89
-26.91
-16.53
-6.95
1.05
7.19
11.67
14.84
17.03
18.32
18.68
18.06
16.65
14.87
13.23
12.21
11.96
12.40
13.21
14.12
14.99
15.85
16.79
17.77
18.62
19.00
18.55
17.08
14.66
11.68
8.68
6.13
4.29
3.09
2.15
0.98
-0.90
-3.76
-7.68
-12.49
-17.78
-22.94
-27.17
-29.63
-29.57
-26.61
-20.82
-12.80
-3.45
6.23
15.31
23.15
29.33
33.67
36.17
36.96
36.23
34.35
31.77
29.01
26.59
24.84
23.83
23.39
23.22
23.00
22.52
21.73
20.67
19.41
17.95
16.17
13.92
11.11
7.75
3.97
0.00
-3.95
-7.74
-11.33
-14.78
-18.09
-21.33
-24.53
-27.82
-31.44
-35.63
-40.46
-45.61
-50.33
-53.62
-54.56
-52.70
-48.09
-41.33
-33.20
-24.47
-15.76
-7.55
-0.22
5.86
10.35
13.06
13.92
13.13
11.07
8.28
5.33
2.74
0.87
-0.11
-0.18
0.47
1.63
2.99
4.29
5.30
5.83
5.82
5.22
4.07
2.38
0.24
-2.22
-4.80
-7.32
-9.70
-12.03
-14.55
-17.62
-21.49
-26.21
-31.46
-36.63
-40.86
-43.22
-42.98
-39.79
-33.77
-25.50
-15.82
-5.63
4.22
13.06
20.37
25.74
28.97
30.03
29.17
26.84
23.58
19.99
16.58
13.70
11.61
10.36
9.87
9.97
10.41
11.02
11.61
12.11
12.36
12.17
11.27
9.44
6.61
2.92
-1.25
-5.44
-9.27
-12.60
-15.62
-18.73
-22.47
-27.15
-32.81
-38.97
-44.82
-49.38
-51.75
-51.42
-48.23
-42.47
-34.66
-25.52
-15.86
-6.48
1.88
8.65
13.51
16.36
17.36
16.79
15.07
12.60
9.84
7.25
5.21
3.92
3.40
3.46
3.90
4.57
5.54
6.96
8.85
11.07
13.16
14.61
14.99
14.18
12.40
10.12
7.86
5.96
4.47
3.21
1.84
0.03
-2.54
-5.94
-9.98
-14.17
-17.73
-19.79
-19.54
-16.47
-10.52
-2.09
8.03
18.78
29.02
37.73
44.19
48.06
49.42
48.60
46.15
42.68
38.69
34.66
30.92
27.67
24.93
22.59
20.51
18.56
16.80
15.27
14.01
12.91
11.68
9.95
7.40
3.92
-0.33
-5.01
-9.69
-14.06
-18.01
-21.71
-25.53
-29.93
-35.23
-41.41
-48.01
-54.16
-58.71
-60.58
-59.03
-53.88
-45.56
-34.95
-23.15
-11.22
-0.01
9.88
18.12
24.51
28.94
31.35
31.78
30.44
27.75
24.30
20.77
17.81
15.81
14.91
14.97
15.75
16.99
18.53
20.23
21.85
23.04
23.27
22.09
19.27
14.98
9.73
4.24
-0.82
-5.00
-8.22
-10.75
-13.19
-16.26
-20.58
-26.35
-33.15
-39.88
-45.05
-47.28
-45.75
-40.49
-32.32
-22.52
-12.29
-2.55
6.23
13.82
20.03
24.65
27.38
28.16
27.15
24.85
21.95
19.13
16.88
15.37
14.55
14.21
14.22
14.53
15.12
15.95
16.79
17.32
17.27
16.50
15.06
13.10
10.68
7.76
4.27
0.23
-4.09
-8.28
-11.96
-15.02
-17.79
-20.85
-24.80
-29.86
-35.80
-41.81
-46.82
-49.70
-49.57
-46.03
-39.16
-29.65
-18.54
-7.08
3.58
12.57
19.47
24.24
27.16
28.58
28.78
27.98
26.34
24.11
21.65
19.40
17.77
16.99
17.10
17.89
19.08
20.31
21.29
21.78
21.68
21.02
19.88
18.35
16.44
14.08
11.17
7.64
3.55
-0.90
-5.46
-9.89
-14.04
-17.90
-21.55
-25.16
-28.99
-33.35
-38.50
-44.47
-50.88
-56.92
-61.42
-63.22
-61.49
-55.97
-47.16
-36.04
-23.90
-12.00
-1.32
7.53
14.25
18.73
21.03
21.32
19.88
17.22
13.97
10.80
8.29
6.75
6.25
6.63
7.66
9.13
10.83
12.57
14.07
15.10
15.53
15.42
15.03
14.66
14.47
14.37
14.12
13.34
11.75
9.20
5.76
1.66
-2.79
-7.26
-11.47
-15.23
-18.58
-21.72
-25.06
-29.01
-33.78
-39.21
-44.61
-48.90
-50.90
-49.64
-44.73
-36.51
-25.89
-14.09
-2.33
8.48
17.74
25.13
30.50
33.77
34.97
34.31
32.20
29.24
26.12
23.48
21.82
21.43
22.40
24.60
27.75
31.43
35.11
38.22
40.27
40.94
40.16
38.09
35.07
31.46
27.49
23.30
18.93
14.38
9.73
5.07
0.50
-3.87
-8.05
-12.06
-16.01
-20.02
-24.24
-28.86
-34.01
-39.69
-45.55
-50.90
-54.72
-55.93
-53.79
-48.19
-39.67
-29.35
-18.53
-8.38
0.29
7.02
11.67
14.19
14.68
13.35
10.51
6.68
2.43
-1.66
-5.11
-7.58
-8.93
-9.18
-8.49
-7.15
-5.51
-3.96
-2.90
-2.60
-3.24
-4.83
-7.33
-10.64
-14.69
-19.40
-24.63
-30.15
-35.66
-40.81
-45.43
-49.52
-53.30
-57.12
-61.34
-66.25
-71.95
-78.31
-84.89
-90.87
-95.20
-96.78
-94.77
-88.85
-79.32
-67.01
-53.01
-38.49
-24.50
-11.85
-1.06
7.60
14.12
18.68
21.58
23.20
23.97
24.39
24.94
26.12
28.21
31.22
34.94
38.99
43.01
46.68
49.82
52.22
53.67
54.01
53.16
51.22
48.43
45.05
41.31
37.33
33.09
28.58
23.83
18.99
14.27
9.89
5.93
2.27
-1.41
-5.55
-10.44
-16.03
-21.84
-26.93
-30.22
-30.75
-27.99
-21.90
-12.95
-1.91
10.29
22.73
34.61
45.23
54.09
60.83
65.24
67.29
67.05
64.81
60.93
55.99
50.58
45.35
40.88
37.66
35.96
35.80
36.84
38.38
39.57
39.68
38.29
35.48
31.67
27.44
23.21
19.15
15.16
11.13
6.99
2.85
-1.11
-4.76
-8.13
-11.34
-14.64
-18.25
-22.39
-27.17
-32.62
-38.47
-44.17
-48.89
-51.66
-51.67
-48.48
-42.15
-33.20
-22.50
-11.04
0.21
10.38
18.84
25.15
29.19
31.06
31.12
29.84
27.69
25.09
22.42
20.06
18.40
17.79
18.39
20.15
22.73
25.56
28.11
29.94
30.87
30.92
30.24
28.94
27.06
24.62
21.67
18.43
15.18
12.25
9.82
7.91
6.32
4.77
3.00
0.77
-1.99
-5.32
-9.17
-13.32
-17.38
-20.62
-22.17
-21.19
-17.20
-10.22
-0.86
9.92
21.08
31.75
41.34
49.55
56.19
61.08
64.02
64.75
63.12
59.19
53.33
46.12
38.36
30.85
24.30
19.14
15.51
13.20
11.84
10.99
10.26
9.39
8.20
6.58
4.44
1.71
-1.66
-5.55
-9.78
-14.05
-18.12
-21.82
-25.11
-28.06
-30.80
-33.50
-36.38
-39.70
-43.71
-48.51
-53.89
-59.17
-63.29
-65.04
-63.40
-57.92
-48.90
-37.25
-24.25
-11.22
0.83
11.22
19.60
25.77
29.68
31.38
31.06
29.10
26.10
22.72
19.64
17.43
16.37
16.51
17.64
19.37
21.28
22.99
24.24
24.84
24.68
23.68
21.82
19.13
15.76
11.86
7.65
3.31
-1.02
-5.22
-9.21
-12.93
-16.34
-19.41
-22.22
-24.94
-27.87
-31.38
-35.71
-40.84
-46.24
-50.91
-53.61
-53.16
-48.93
-40.99
-30.11
-17.49
-4.41
7.98
18.81
27.52
33.82
37.72
39.53
39.77
39.06
37.94
36.80
35.88
35.35
35.41
36.27
38.05
40.74
44.15
47.98
51.90
55.61
58.85
61.41
63.01
63.46
62.66
60.69
57.87
54.65
51.53
48.92
46.98
45.68
44.82
44.22
43.77
43.57
43.79
44.58
45.82
47.04
47.54
46.68
44.30
40.92
37.75
36.27
37.74
42.69
50.78
60.79
71.01
79.59
84.90
85.83
81.98
73.66
61.86
47.93
33.23
18.79
5.10
-7.84
-20.25
-32.31
-43.96
-54.84
-64.44
-72.30
-78.18
-82.24
-84.99
-87.17
-89.50
-92.47
-96.21
-100.57
-105.23
-109.89
-114.37
-118.52
-122.18
-125.02
-126.70
-126.87
-125.40
-122.37
-118.05
-112.79
-106.92
-100.89
-95.25
-90.68
-87.80
-86.92
-87.74
-89.35
-90.35
-89.32
-85.26
-77.82
-67.31
-54.58
-40.68
-26.73
-13.73
-2.52
6.36
12.68
16.61
18.54
19.04
18.62
17.68
16.50
15.30
14.33
13.82
13.95
14.78
16.23
18.19
20.46
22.88
25.24
27.29
28.73
29.32
28.89
27.46
25.24
22.54
19.66
16.83
14.09
11.38
8.57
5.56
2.32
-1.05
-4.33
-7.27
-9.76
-11.93
-14.19
-17.02
-20.77
-25.32
-30.03
-33.77
-35.33
-33.76
-28.74
-20.55
-10.06
1.60
13.30
24.13
33.43
40.76
45.88
48.62
48.99
47.21
43.83
39.69
35.77
32.97
31.78
32.23
33.79
35.75
37.40
38.30
38.32
37.46
35.78
33.23
29.76
25.43
20.46
15.29
10.36
5.94
1.96
-1.90
-6.01
-10.53
-15.31
-19.95
-24.10
-27.57
-30.51
-33.26
-36.23
-39.74
-43.96
-48.90
-54.40
-60.00
-64.98
-68.37
-69.12
-66.44
-60.04
-50.33
-38.29
-25.25
-12.60
-1.48
7.41
13.84
17.95
20.05
20.50
19.67
17.87
15.46
12.92
10.84
9.70
9.79
11.07
13.18
15.62
17.95
19.95
21.61
23.01
24.15
24.84
24.79
23.69
21.50
18.43
14.94
11.51
8.42
5.66
3.02
0.18
-3.05
-6.62
-10.29
-13.65
-16.47
-18.75
-20.82
-23.26
-26.63
-31.27
-36.98
-43.04
-48.31
-51.53
-51.70
-48.32
-41.56
-32.15
-21.12
-9.59
1.47
11.34
19.53
25.76
29.89
31.92
32.02
30.58
28.09
25.15
22.31
19.99
18.53
18.12
18.81
20.54
23.01
25.78
28.35
30.35
31.55
31.95
31.61
30.56
28.79
26.33
23.31
20.06
16.93
14.20
11.87
9.69
7.31
4.43
1.03
-2.67
-6.24
-9.36
-11.85
-13.80
-15.58
-17.70
-20.67
-24.81
-30.06
-35.84
-41.17
-44.87
-45.83
-43.39
-37.45
-28.62
-17.98
-6.88
3.47
12.22
18.94
23.62
26.39
27.49
27.05
25.29
22.49
19.15
15.91
13.40
12.11
12.19
13.51
15.73
18.37
21.02
23.29
24.91
25.68
25.55
24.50
22.68
20.22
17.31
14.15
10.86
7.59
4.37
1.21
-1.91
-5.00
-8.04
-10.93
-13.53
-15.74
-17.58
-19.25
-21.12
-23.65
-27.15
-31.60
-36.56
-41.13
-44.24
-44.89
-42.43
-36.77
-28.41
-18.35
-7.82
1.96
10.16
16.35
20.53
22.98
23.99
23.83
22.65
20.62
17.99
15.14
12.57
10.73
9.96
10.32
11.65
13.61
15.73
17.52
18.61
18.74
17.86
16.08
13.58
10.66
7.55
4.48
1.49
-1.54
-4.79
-8.48
-12.56
-16.81
-20.77
-24.05
-26.49
-28.30
-30.01
-32.19
-35.21
-39.04
-43.21
-46.93
-49.22
-49.17
-46.13
-39.90
-30.85
-19.90
-8.32
2.60
11.80
18.71
23.26
25.73
26.54
26.07
24.62
22.43
19.78
17.03
14.59
12.82
11.99
12.18
13.30
15.12
17.31
19.46
21.14
21.92
21.55
19.98
17.40
14.17
10.68
7.22
3.93
0.84
-2.07
-4.86
-7.54
-10.15
-12.72
-15.29
-17.85
-20.47
-23.24
-26.34
-29.95
-34.12
-38.58
-42.68
-45.53
-46.21
-44.09
-39.08
-31.60
-22.47
-12.64
-2.96
5.94
13.62
19.81
24.27
26.87
27.60
26.72
24.66
22.03
19.42
17.27
15.91
15.44
15.85
17.08
18.95
21.19
23.44
25.28
26.34
26.45
25.64
24.12
22.14
19.92
17.58
15.11
12.45
9.57
6.50
3.33
0.24
-2.65
-5.24
-7.51
-9.53
-11.44
-13.43
-15.74
-18.61
-22.15
-26.21
-30.35
-33.77
-35.53
-34.83
-31.30
-25.12
-17.01
-8.03
0.74
8.46
14.63
19.09
22.00
23.56
24.07
23.71
22.64
20.98
18.91
16.74
14.86
13.68
13.51
14.43
16.24
18.53
20.75
22.42
23.19
22.98
21.91
20.17
17.98
15.47
12.73
9.86
6.97
4.24
1.76
-0.45
-2.48
-4.45
-6.45
-8.54
-10.68
-12.89
-15.25
-17.91
-21.01
-24.51
-28.14
-31.37
-33.51
-33.85
-31.92
-27.63
-21.34
-13.75
-5.75
1.84
8.49
13.87
17.91
20.59
21.94
21.99
20.88
18.86
16.35
13.88
11.95
11.00
11.24
12.59
14.74
17.19
19.39
20.91
21.57
21.36
20.46
19.07
17.34
15.41
13.36
11.24
9.06
6.81
4.40
1.82
-0.92
-3.74
-6.49
-9.06
-11.39
-13.53
-15.63
-17.95
-20.69
-24.00
-27.83
-31.85
-35.45
-37.77
-37.96
-35.40
-30.00
-22.27
-13.18
-3.96
4.35
11.02
15.77
18.67
19.90
19.77
18.57
16.68
14.48
12.41
10.77
9.76
9.43
9.70
10.48
11.67
13.19
14.90
16.66
18.19
19.21
19.44
18.70
17.00
14.57
11.75
8.92
6.35
4.12
2.10
0.12
-1.98
-4.22
-6.51
-8.71
-10.67
-12.37
-13.88
-15.47
-17.45
-20.15
-23.70
-27.94
-32.30
-35.93
-37.88
-37.42
-34.25
-28.62
-21.21
-12.92
-4.64
2.89
9.22
14.07
17.36
19.11
19.49
18.75
17.30
15.59
14.04
12.95
12.46
12.54
13.03
13.78
14.67
15.64
16.64
17.55
18.24
18.48
18.10
17.02
15.34
13.29
11.17
9.22
7.49
5.95
4.42
2.76
0.88
-1.24
-3.52
-5.85
-8.06
-10.01
-11.62
-12.95
-14.25
-15.87
-18.16
-21.30
-25.12
-29.11
-32.45
-34.30
-33.94
-31.04
-25.71
-18.51
-10.31
-2.07
5.34
11.36
15.75
18.53
19.87
19.97
19.01
17.19
14.78
12.12
9.72
8.05
7.44
7.94
9.31
11.06
12.71
13.92
14.60
14.88
14.92
14.83
14.56
13.96
12.91
11.44
9.67
7.79
5.89
3.98
2.01
-0.05
-2.11
-4.01
-5.58
-6.76
-7.73
-8.81
-10.36
-12.65
-15.74
-19.37
-23.08
-26.24
-28.20
-28.41
-26.56
-22.58
-16.82
-9.89
-2.63
4.13
9.72
13.80
16.34
17.52
17.64
17.00
15.86
14.45
12.94
11.52
10.32
9.44
8.99
9.04
9.61
10.61
11.82
12.97
13.70
13.82
13.24
12.03
10.29
8.11
5.56
2.64
-0.55
-3.92
-7.24
-10.33
-13.03
-15.23
-16.94
-18.29
-19.47
-20.73
-22.28
-24.30
-26.83
-29.79
-32.89
-35.66
-37.49
-37.74
-35.90
-31.78
-25.63
-18.08
-10.03
-2.34
4.30
9.53
13.27
15.69
17.06
17.60
17.47
16.77
15.57
14.02
12.42
11.14
10.54
10.79
11.81
13.34
15.01
16.47
17.52
18.09
18.13
17.65
16.65
15.13
13.19
11.00
8.76
6.67
4.81
3.18
1.71
0.34
-0.92
-1.93
-2.60
-2.90
-2.98
-3.12
-3.68
-4.91
-6.79
-8.99
-10.84
-11.54
-10.34
-6.70
-0.51
7.92
17.95
28.82
39.76
50.15
59.58
67.87
75.04
81.33
87.09
92.56
97.74
102.31
105.73
107.55
107.60
106.15
103.61
100.35
96.41
91.51
85.28
77.55
68.51
58.66
48.63
38.90
29.81
21.49
14.06
7.59
2.03
-2.78
-7.12
-11.30
-15.49
-19.67
-23.68
-27.32
-30.46
-33.10
-35.40
-37.54
-39.77
-42.31
-45.34
-48.88
-52.71
-56.26
-58.67
-58.98
-56.46
-50.89
-42.73
-32.99
-23.00
-13.97
-6.69
-1.39
2.21
4.67
6.50
8.01
9.23
10.09
10.50
10.49
10.25
10.04
10.02
10.28
10.74
11.23
11.57
11.61
11.22
10.31
8.83
6.85
4.52
2.10
-0.22
-2.35
-4.44
-6.82
-9.96
-14.24
-19.88
-26.88
-35.05
-44.16
-53.97
-64.27
-74.94
-85.88
-97.17
-108.92
-121.19
-133.74
-145.94
-156.75
-164.95
-169.53
-169.99
-166.40
-159.14
-148.59
-134.87
-117.87
-97.57
-74.37
-49.32
-23.97
0.01
21.23
38.91
52.94
63.73
71.92
78.14
82.82
86.19
88.22
88.78
87.60
84.33
78.62
70.19
59.04
45.42
29.87
13.02
-4.60
-22.61
-40.77
-58.78
-76.25
-92.70
-107.67
-120.68
-131.21
-138.51
-141.72
-140.18
-133.79
-123.27
-109.86
-94.75
-78.48
-60.81
-41.03
-18.60
6.37
33.22
61.07
89.16
116.97
143.87
168.81
190.17
206.06
214.86
215.75
208.87
195.27
176.59
154.77
131.73
109.13
88.21
69.75
54.17
41.76
32.93
28.25
28.13
32.42
40.05
49.09
57.11
61.97
62.46
58.60
51.51
42.80
34.05
26.33
20.24
16.00
13.72
13.46
15.13
18.42
22.72
27.32
31.64
35.46
38.91
42.46
46.67
51.87
58.09
64.99
71.94
78.24
83.36
87.00
89.13
89.98
89.88
89.24
88.46
87.78
87.29
86.77
85.93
84.61
82.98
81.52
80.75
80.76
80.89
79.88
76.20
68.81
57.57
43.26
27.20
10.56
-5.98
-22.36
-38.80
-55.47
-72.24
-88.74
-104.56
-119.46
-133.49
-146.84
-159.60
-171.60
-182.30
-191.03
-197.28
-201.02
-202.86
-203.88
-205.35
-208.23
-212.84
-218.73
-224.73
-229.28
-230.83
-228.25
-221.15
-209.96
-195.87
-180.47
-165.37
-151.77
-140.26
-130.89
-123.33
-117.17
-112.05
-107.75
-104.09
-100.88
-97.87
-94.69
-90.93
-86.15
-79.99
-72.34
-63.39
-53.69
-44.00
-35.12
-27.69
-22.11
-18.41
-16.36
-15.56
-15.41
-15.31
-14.69
-13.09
-10.31
-6.37
-1.53
3.78
8.99
13.53
16.79
18.29
17.69
14.91
10.17
3.99
-2.81
-9.20
-14.05
-16.38
-15.51
-11.29
-4.15
5.06
15.22
25.29
34.42
42.01
47.67
51.16
52.47
51.74
49.45
46.22
42.80
39.89
37.97
37.25
37.60
38.62
39.74
40.45
40.35
39.34
37.51
35.13
32.44
29.55
26.48
23.10
19.31
15.05
10.38
5.51
0.67
-3.86
-7.97
-11.71
-15.35
-19.20
-23.45
-28.09
-32.82
-37.10
-40.26
-41.56
-40.33
-36.12
-28.86
-18.97
-7.42
4.54
15.65
24.98
32.03
36.77
39.40
40.17
39.38
37.28
34.33
31.11
28.36
26.79
26.81
28.48
31.43
35.04
38.70
41.96
44.65
46.76
48.36
49.44
49.89
49.55
48.29
46.13
43.20
39.72
35.97
32.28
28.90
25.92
23.19
20.25
16.39
10.89
3.39
-5.84
-15.79
-24.88
-31.33
-33.69
-31.14
-23.80
-12.61
0.85
14.75
27.42
37.68
44.99
49.47
51.58
51.94
51.03
49.20
46.75
44.11
41.83
40.56
40.67
42.15
44.56
47.22
49.56
51.32
52.58
53.61
54.59
55.46
55.93
55.56
54.00
51.14
47.14
42.39
37.33
32.37
27.73
23.45
19.38
15.23
10.67
5.38
-0.80
-7.75
-14.98
-21.65
-26.77
-29.42
-29.05
-25.65
-19.68
-11.88
-3.06
6.07
14.94
23.11
30.20
35.88
39.87
41.99
42.25
40.83
38.15
34.78
31.29
28.17
25.70
23.87
22.49
21.22
19.70
17.61
14.70
10.79
5.77
-0.34
-7.43
-15.32
-23.79
-32.67
-41.83
-51.19
-60.62
-69.86
-78.51
-86.05
-91.96
-95.90
-97.87
-98.26
-97.82
-97.45
-97.89
-99.52
-102.20
-105.26
-107.60
-107.96
-105.22
-98.72
-88.49
-75.25
-60.29
-45.08
-30.94
-18.81
-9.11
-1.83
3.31
6.75
8.91
10.17
10.87
11.31
11.74
12.34
13.26
14.60
16.36
18.43
20.57
22.49
23.90
24.57
24.38
23.38
21.66
19.34
16.48
13.09
9.19
4.84
0.23
-4.40
-8.78
-12.85
-16.69
-20.61
-24.95
-29.91
-35.47
-41.26
-46.67
-50.82
-52.80
-51.81
-47.34
-39.44
-28.72
-16.31
-3.55
8.36
18.74
27.43
34.72
40.96
46.26
50.43
53.07
53.97
53.34
51.88
50.64
50.62
52.49
56.26
61.37
66.85
71.58
74.76
76.05
75.66
74.28
72.81
72.16
72.95
75.41
79.05
82.54
83.90
80.92
71.91
56.50
35.83
12.34
-11.25
-32.82
-51.47
-67.38
-81.06
-92.65
-101.36
-105.80
-104.68
-97.63
-85.57
-70.50
-54.84
-40.57
-28.72
-19.36
-11.98
-6.10
-1.59
1.25
2.07
0.91
-1.61
-4.39
-6.29
-6.59
-5.26
-2.80
0.02
2.61
4.77
6.68
8.67
10.92
13.25
15.15
16.01
15.39
13.31
10.26
7.11
4.74
3.69
4.01
5.15
6.34
6.92
6.64
5.78
4.97
4.82
5.62
7.14
8.75
9.81
10.14
10.28
11.54
15.62
24.02
37.50
55.71
77.08
98.99
118.22
131.61
136.69
132.30
118.93
98.66
74.58
49.98
27.46
8.33
-7.54
-21.20
-33.98
-46.71
-59.32
-70.98
-80.50
-87.02
-90.35
-91.04
-90.12
-88.54
-86.84
-85.08
-83.04
-80.64
-78.09
-75.88
-74.56
-74.28
-74.74
-75.22
-74.91
-73.31
-70.44
-66.82
-63.25
-60.51
-59.10
-59.15
-60.56
-62.96
-65.76
-68.02
-68.49
-65.80
-58.97
-47.78
-33.07
-16.57
-0.40
13.57
24.20
31.25
35.10
36.39
35.63
33.19
29.38
24.71
19.96
16.05
13.71
13.11
13.86
15.15
16.16
16.50
16.33
16.16
16.52
17.56
18.91
19.87
19.75
18.16
15.16
11.15
6.68
2.19
-1.98
-5.74
-9.01
-11.82
-14.21
-16.41
-18.74
-21.56
-25.10
-29.22
-33.41
-36.70
-38.03
-36.41
-31.32
-22.84
-11.60
1.29
14.68
27.53
39.14
49.08
57.11
63.06
66.79
68.30
67.83
66.07
63.95
62.48
62.45
64.21
67.63
72.12
76.90
81.19
84.50
86.74
88.25
89.72
91.82
95.00
99.15
103.60
107.27
108.84
107.07
100.96
90.00
74.29
54.62
32.42
9.42
-12.83
-33.28
-51.51
-67.54
-81.39
-92.77
-101.00
-105.24
-104.89
-99.85
-90.66
-78.41
-64.46
-50.20
-36.79
-25.11
-15.66
-8.66
-4.15
-2.02
-2.00
-3.66
-6.28
-9.01
-10.97
-11.54
-10.60
-8.44
-5.70
-2.99
-0.72
1.04
2.37
3.40
4.12
4.38
3.98
2.74
0.65
-2.19
-5.62
-9.47
-13.52
-17.48
-21.03
-23.85
-25.80
-27.01
-27.90
-29.01
-30.80
-33.43
-36.56
-39.36
-40.61
-39.01
-33.53
-23.77
-10.19
5.93
22.75
38.49
51.83
62.23
69.79
74.87
77.69
77.92
74.90
67.95
56.94
42.61
26.48
10.32
-4.48
-17.42
-28.86
-39.58
-50.07
-60.10
-68.75
-74.87
-77.69
-77.35
-74.83
-71.60
-68.99
-67.82
-68.28
-70.04
-72.56
-75.26
-77.66
-79.29
-79.84
-79.11
-77.18
-74.44
-71.45
-68.79
-66.68
-64.84
-62.44
-58.36
-51.64
-41.82
-29.16
-14.52
0.86
15.80
29.30
40.70
49.60
55.72
58.97
59.42
57.45
53.69
49.00
44.27
40.28
37.61
36.50
36.94
38.61
41.05
43.71
46.06
47.76
48.56
48.33
47.00
44.56
41.10
36.86
32.23
27.71
23.77
20.69
18.47
16.78
15.07
12.67
9.06
4.07
-1.94
-7.98
-12.70
-14.71
-13.08
-7.59
1.34
12.88
26.32
41.22
57.39
74.60
92.18
109.01
123.57
134.35
140.14
140.34
135.10
125.43
113.28
101.22
91.95
87.22
86.96
88.81
88.81
82.88
68.59
46.40
19.32
-8.31
-32.86
-52.49
-67.51
-79.33
-89.25
-97.80
-104.72
-109.71
-113.07
-115.78
-119.01
-123.43
-128.87
-134.35
-138.64
-140.63
-139.60
-135.11
-126.87
-114.67
-98.52
-78.90
-56.76
-33.57
-10.91
9.72
27.18
40.79
50.30
55.91
58.12
57.69
55.44
52.16
48.42
44.68
41.27
38.45
36.45
35.33
35.03
35.33
36.09
37.20
38.71
40.55
42.38
43.57
43.21
40.63
35.54
28.30
19.76
10.92
2.59
-4.82
-11.34
-17.26
-23.04
-29.14
-35.91
-43.45
-51.45
-59.08
-65.10
-68.09
-66.97
-61.31
-51.59
-39.03
-25.22
-11.67
0.52
10.71
18.55
23.83
26.39
26.19
23.55
19.26
14.43
10.31
7.91
7.72
9.74
13.47
18.23
23.33
28.29
32.86
37.12
41.39
46.06
51.22
56.37
60.31
61.34
58.00
49.62
36.89
21.77
6.78
-5.87
-15.05
-21.00
-24.92
-28.33
-32.41
-37.59
-43.57
-49.55
-54.50
-57.38
-57.38
-54.03
-47.33
-37.81
-26.48
-14.63
-3.68
5.14
10.91
13.24
12.33
8.87
4.00
-1.08
-5.30
-8.08
-9.26
-9.07
-7.83
-5.79
-3.08
0.20
3.79
7.30
10.22
12.13
12.75
12.04
10.11
7.09
3.18
-1.43
-6.37
-11.21
-15.49
-18.94
-21.58
-23.73
-25.92
-28.69
-32.43
-37.17
-42.55
-47.82
-51.87
-53.52
-51.78
-46.17
-36.80
-24.44
-10.29
4.32
18.15
30.22
39.78
46.36
49.73
50.01
47.68
43.57
38.72
34.12
30.52
28.25
27.25
27.15
27.55
28.19
29.02
30.11
31.55
33.23
34.82
35.83
35.80
34.50
32.03
28.88
25.71
23.21
22.04
22.68
25.28
29.46
34.06
37.25
36.89
31.24
19.72
3.25
-15.87
-34.60
-50.00
-59.93
-63.32
-60.11
-51.08
-37.66
-21.74
-5.53
8.82
19.70
26.38
29.17
29.02
27.20
24.76
22.28
20.01
17.99
16.33
15.22
14.91
15.53
17.06
19.29
21.86
24.31
26.21
27.17
26.94
25.41
22.71
19.10
14.89
10.34
5.56
0.62
-4.46
-9.52
-14.40
-18.82
-22.64
-25.86
-28.72
-31.60
-34.94
-39.08
-44.15
-49.91
-55.62
-60.16
-62.10
-60.13
-53.51
-42.42
-28.03
-12.23
2.99
16.03
26.02
32.79
36.60
37.88
37.06
34.53
30.78
26.40
22.03
18.23
15.39
13.73
13.23
13.81
15.23
17.17
19.23
21.13
22.85
24.64
26.91
29.96
33.68
37.40
39.97
40.05
36.54
28.94
17.61
3.67
-11.27
-25.53
-37.80
-47.41
-54.37
-59.28
-63.01
-66.52
-70.48
-75.29
-80.83
-86.56
-91.51
-94.44
-94.19
-90.00
-81.80
-70.24
-56.71
-42.89
-30.46
-20.68
-14.26
-11.38
-11.79
-15.00
-20.32
-26.98
-33.99
-40.28
-44.79
-46.71
-45.73
-42.14
-36.80
-30.87
-25.48
-21.35
-18.69
-17.21
-16.31
-15.33
-13.80
-11.58
-8.85
-6.00
-3.43
-1.43
-0.10
0.62
0.92
1.01
1.09
1.30
1.65
1.90
1.66
0.30
-2.67
-7.32
-13.00
-18.31
-21.46
-20.87
-15.82
-6.80
4.62
16.40
26.65
34.29
39.13
41.76
43.17
44.56
47.12
51.96
59.76
70.40
82.72
94.59
103.50
107.49
105.77
99.00
88.80
77.06
65.23
54.05
43.69
34.10
25.29
17.32
10.22
3.79
-2.39
-8.79
-15.76
-23.31
-31.16
-38.86
-46.00
-52.45
-58.42
-64.41
-70.97
-78.41
-86.54
-94.59
-101.25
-105.01
-104.52
-98.88
-87.83
-71.71
-51.42
-28.14
-3.27
21.74
45.44
66.48
83.65
95.98
102.96
104.62
101.57
94.93
86.15
76.67
67.73
60.10
54.04
49.43
45.82
42.65
39.42
35.77
31.49
26.60
21.22
15.50
9.57
3.52
-2.61
-8.74
-14.85
-20.88
-26.82
-32.54
-37.91
-42.68
-46.62
-49.69
-52.06
-54.21
-56.72
-60.05
-64.23
-68.74
-72.58
-74.49
-73.45
-68.95
-61.26
-51.25
-40.16
-29.11
-18.83
-9.59
-1.26
6.26
12.93
18.38
22.16
23.93
23.80
22.38
20.77
20.28
22.04
26.88
35.17
46.91
61.68
78.42
95.42
110.27
120.40
123.81
119.77
109.05
93.64
75.82
57.36
39.20
21.51
4.42
-11.57
-25.53
-36.47
-43.97
-48.45
-51.18
-53.60
-56.79
-60.89
-65.12
-68.04
-68.09
-64.21
-56.15
-44.57
-30.74
-16.22
-2.37
9.89
20.01
27.83
33.26
36.35
37.19
36.14
33.83
31.12
28.94
27.95
28.39
30.06
32.45
35.06
37.57
39.85
41.86
43.58
44.83
45.42
45.14
43.87
41.56
38.20
33.83
28.54
22.65
16.58
10.86
5.75
1.15
-3.47
-8.84
-15.43
-23.27
-31.65
-39.41
-45.18
-47.74
-46.39
-40.96
-32.00
-20.47
-7.61
5.33
17.29
27.48
35.38
40.67
43.25
43.26
41.17
37.71
33.77
30.11
27.19
25.15
23.82
22.96
22.37
21.93
21.54
21.25
21.29
22.15
24.53
28.95
35.39
43.11
50.70
56.61
59.64
59.29
55.69
49.30
40.64
30.12
18.11
5.07
-8.40
-21.54
-33.51
-43.46
-50.35
-53.06
-50.56
-42.29
-28.62
-10.89
8.64
27.49
43.51
55.37
62.77
66.20
66.63
65.10
62.34
58.58
53.47
46.32
36.41
23.46
7.96
-8.80
-24.98
-38.74
-48.77
-54.68
-56.99
-56.82
-55.44
-53.95
-52.97
-52.77
-53.44
-55.05
-57.73
-61.54
-66.30
-71.46
-76.21
-79.72
-81.55
-81.85
-81.33
-80.91
-81.22
-82.29
-83.38
-83.28
-80.74
-74.96
-65.75
-53.60
-39.35
-23.89
-7.87
8.25
24.17
39.42
53.22
64.59
72.58
76.76
77.57
76.33
74.99
75.44
78.99
85.88
95.33
105.85
115.60
122.92
126.58
126.12
122.11
116.05
109.88
105.16
102.14
99.48
94.51
84.49
67.85
45.00
18.12
-9.76
-35.99
-59.15
-79.11
-96.45
-111.72
-124.99
-135.68
-142.89
-145.78
-143.89
-137.29
-126.65
-113.13
-98.08
-82.81
-68.28
-55.11
-43.58
-33.89
-26.30
-21.03
-18.12
-17.18
-17.36
-17.62
-17.02
-15.14
-12.15
-8.61
-5.13
-2.11
0.45
2.70
4.78
6.64
8.08
8.84
8.70
7.71
5.99
3.77
1.24
-1.48
-4.34
-7.30
-10.29
-13.26
-16.14
-18.97
-21.84
-24.91
-28.29
-31.94
-35.56
-38.54
-40.08
-39.29
-35.43
-28.09
-17.36
-3.81
11.63
27.86
43.89
58.94
72.47
84.14
93.71
101.08
106.44
110.35
113.60
116.96
120.69
124.50
127.57
128.97
127.94
123.85
116.06
103.69
85.79
61.85
32.36
-0.99
-35.66
-69.06
-99.26
-125.25
-146.76
-163.67
-175.59
-181.93
-182.26
-176.94
-167.22
-155.11
-142.79
-131.94
-123.37
-116.89
-111.66
-106.56
-100.72
-93.56
-84.85
-74.44
-62.27
-48.26
-32.61
-15.98
0.57
15.60
27.79
36.21
40.64
41.62
40.21
37.68
35.08
33.08
31.89
31.41
31.45
31.83
32.54
33.55
34.79
35.97
36.65
36.39
34.95
32.40
29.10
25.53
22.03
18.67
15.09
10.67
4.76
-3.00
-12.35
-22.31
-31.24
-37.22
-38.61
-34.52
-25.14
-11.69
3.94
19.73
34.02
45.94
55.32
62.57
68.33
73.13
77.22
80.65
83.38
85.58
87.61
89.87
92.63
95.98
99.83
104.12
108.67
112.82
115.02
112.82
103.51
85.25
58.09
24.27
-12.46
-48.10
-79.72
-106.03
-127.14
-143.81
-156.77
-166.36
-172.69
-175.75
-175.50
-171.83
-164.50
-153.23
-137.93
-119.03
-97.55
-75.02
-53.22
-33.76
-17.83
-5.95
2.00
6.75
9.26
10.57
11.51
12.63
14.20
16.29
18.97
22.23
26.07
30.38
34.93
39.32
42.96
45.30
45.80
44.27
40.79
35.79
29.85
23.52
17.17
10.81
4.19
-3.02
-10.94
-19.30
-27.27
-33.70
-37.45
-37.63
-34.00
-26.94
-17.32
-6.24
5.23
16.32
26.51
35.56
43.39
49.96
55.25
59.21
61.90
63.54
64.52
65.45
66.90
69.34
72.92
77.55
82.98
88.92
95.17
101.51
107.75
113.57
118.72
123.08
126.78
130.07
133.07
135.48
136.57
135.53
131.80
125.36
116.50
105.37
91.61
74.25
52.35
25.69
-4.67
-36.62
-67.64
-95.75
-120.02
-140.36
-157.04
-170.04
-179.01
-183.44
-183.23
-178.86
-171.31
-161.68
-150.78
-139.09
-126.76
-113.92
-100.80
-87.80
-75.43
-64.18
-54.47
-46.61
-40.75
-36.78
-34.44
-33.27
-32.78
-32.66
-32.81
-33.34
-34.50
-36.47
-39.33
-43.00
-47.33
-52.04
-56.70
-60.57
-62.61
-61.64
-56.69
-47.44
-34.45
-19.07
-3.07
11.89
24.61
34.50
41.46
45.66
47.38
46.98
44.95
41.88
38.44
35.18
32.46
30.38
28.91
27.93
27.37
27.16
27.20
27.34
27.32
26.83
25.59
23.34
19.96
15.48
10.11
4.23
-1.66
-7.13
-11.96
-16.29
-20.60
-25.48
-31.30
-37.92
-44.64
-50.33
-53.81
-54.12
-50.78
-43.81
-33.74
-21.42
-7.92
5.53
17.86
28.27
36.39
42.30
46.35
49.09
51.02
52.71
54.74
57.65
61.88
67.46
73.98
80.67
86.76
91.82
95.95
99.62
103.31
106.91
109.60
109.96
106.59
98.82
87.18
73.35
59.68
48.40
41.01
38.00
38.81
41.87
44.79
44.68
38.78
25.43
4.85
-20.47
-46.42
-68.54
-83.51
-90.09
-89.10
-82.58
-72.82
-61.64
-50.22
-39.40
-29.99
-22.74
-18.13
-16.16
-16.20
-17.22
-18.14
-18.11
-16.75
-14.06
-10.36
-6.04
-1.49
3.00
7.26
11.08
14.28
16.64
17.93
17.99
16.79
14.40
10.99
6.84
2.19
-2.67
-7.46
-11.94
-15.94
-19.39
-22.36
-25.11
-28.06
-31.74
-36.61
-42.93
-50.48
-58.46
-65.56
-70.23
-71.08
-67.31
-59.00
-47.06
-33.04
-18.65
-5.34
5.95
14.85
21.42
25.88
28.45
29.24
28.34
25.93
22.45
18.55
15.13
13.06
13.03
15.32
19.69
25.41
31.47
36.96
41.30
44.51
47.18
50.23
54.54
60.48
67.54
74.20
78.19
77.07
69.10
53.87
32.50
7.36
-18.77
-43.56
-65.58
-84.38
-100.06
-112.85
-122.68
-129.23
-131.97
-130.48
-124.52
-114.29
-100.33
-83.57
-65.24
-46.67
-29.14
-13.61
-0.80
8.97
15.60
19.28
20.50
20.00
18.82
17.99
18.33
20.21
23.50
27.63
31.91
35.74
38.79
41.03
42.53
43.43
43.76
43.50
42.56
40.81
38.14
34.45
29.80
24.42
18.70
13.06
7.80
2.95
-1.81
-6.95
-12.93
-19.97
-27.86
-35.88
-42.98
-48.00
-49.90
-48.05
-42.29
-33.03
-21.11
-7.81
5.49
17.52
27.28
34.30
38.49
40.08
39.39
36.78
32.66
27.55
22.22
17.51
14.13
12.40
12.15
12.80
13.68
14.33
14.62
14.72
14.83
15.01
15.02
14.48
12.95
10.19
6.30
1.68
-2.96
-6.75
-8.81
-8.56
-5.97
-1.70
2.98
6.64
8.17
7.28
4.56
1.16
-1.71
-3.25
-3.28
-2.05
-0.02
2.41
4.97
7.36
9.18
9.96
9.31
7.15
3.86
0.16
-3.09
-5.10
-5.43
-4.04
-1.25
2.40
6.34
10.13
13.49
16.32
18.51
19.94
20.38
19.59
17.39
13.81
9.15
3.92
-1.29
-6.01
-10.04
-13.58
-17.04
-20.98
-25.81
-31.67
-38.37
-45.38
-51.90
-56.99
-59.64
-59.04
-54.72
-46.82
-36.06
-23.70
-11.19
0.20
9.57
16.46
20.74
22.49
21.82
18.98
14.34
8.63
2.74
-2.35
-5.90
-7.54
-7.32
-5.66
-3.10
-0.17
2.73
5.41
7.81
10.02
12.19
14.41
16.68
18.80
20.42
21.17
20.84
19.42
17.22
14.58
11.85
9.17
6.55
3.91
1.17
-1.59
-4.19
-6.15
-6.76
-5.11
-0.34
8.07
20.01
34.69
50.71
66.26
79.42
88.40
91.83
89.03
80.16
66.26
49.05
30.60
12.81
-2.83
-15.47
-24.77
-30.77
-33.67
-33.80
-31.65
-27.82
-23.14
-18.52
-14.86
-12.83
-12.76
-14.53
-17.68
-21.56
-25.62
-29.48
-33.02
-36.23
-39.10
-41.63
-43.85
-45.93
-48.22
-51.09
-54.70
-58.82
-62.62
-64.94
-64.51
-60.46
-52.61
-41.55
-28.49
-14.95
-2.36
8.24
16.26
21.55
24.22
24.58
22.95
19.72
15.31
10.17
4.83
-0.18
-4.37
-7.40
-9.18
-9.86
-9.81
-9.40
-8.94
-8.56
-8.34
-8.38
-8.95
-10.47
-13.35
-17.74
-23.37
-29.54
-35.31
-39.78
-42.35
-42.80
-41.40
-38.80
-35.95
-33.74
-32.82
-33.20
-34.15
-34.30
-31.96
-25.75
-15.02
-0.11
17.74
36.78
55.16
71.23
83.73
91.91
95.60
95.26
91.94
86.99
81.76
77.12
73.33
70.13
67.00
63.58
59.93
56.38
53.37
51.22
49.96
49.51
49.63
50.06
50.39
50.07
48.38
44.62
38.37
29.78
19.63
9.18
-0.30
-7.90
-13.37
-17.14
-20.07
-23.07
-26.71
-30.98
-35.41
-39.10
-41.10
-40.65
-37.24
-30.73
-21.31
-9.55
3.60
16.87
28.83
38.23
44.23
46.70
46.12
43.42
39.56
35.22
30.71
26.10
21.40
16.72
12.37
8.71
6.13
4.91
5.22
7.08
10.37
14.79
19.80
24.56
28.07
29.37
27.90
23.61
16.97
8.69
-0.60
-10.54
-21.06
-32.11
-43.38
-54.15
-63.38
-69.90
-72.80
-71.64
-66.62
-58.42
-48.18
-37.17
-26.60
-17.47
-10.44
-5.80
-3.58
-3.56
-5.43
-8.73
-12.93
-17.34
-21.20
-23.79
-24.65
-23.71
-21.29
-18.03
-14.65
-11.72
-9.62
-8.63
-9.04
-11.18
-15.31
-21.36
-28.87
-36.98
-44.87
-52.07
-58.73
-65.49
-73.12
-82.07
-92.06
-102.01
-110.21
-114.82
-114.41
-108.41
-97.33
-82.58
-66.05
-49.63
-34.73
-22.20
-12.39
-5.38
-1.10
0.58
-0.05
-2.40
-5.65
-8.86
-11.15
-11.91
-10.87
-8.02
-3.60
2.05
8.59
15.60
22.64
29.23
34.94
39.42
42.55
44.38
45.15
45.17
44.71
43.94
42.84
41.20
38.64
34.89
29.99
24.59
20.02
18.06
20.49
28.40
41.76
59.20
78.29
96.25
110.64
119.96
123.83
122.82
118.01
110.58
101.49
91.44
80.94
70.36
60.08
50.42
41.63
33.84
27.07
21.25
16.20
11.59
6.98
1.95
-3.78
-10.21
-17.02
-23.73
-29.85
-35.13
-39.67
-43.81
-47.97
-52.50
-57.56
-63.17
-69.22
-75.52
-81.70
-87.09
-90.61
-90.80
-86.25
-76.03
-60.22
-40.03
-17.59
4.69
24.84
41.80
55.50
66.49
75.33
82.12
86.30
87.15
84.19
77.74
68.97
59.46
50.60
43.05
36.64
30.78
24.93
18.97
13.21
7.97
3.24
-1.41
-6.61
-12.74
-19.69
-26.77
-33.13
-38.13
-41.64
-44.02
-45.89
-47.92
-50.57
-54.15
-58.66
-63.83
-69.02
-73.28
-75.52
-74.79
-70.61
-63.15
-53.27
-42.24
-31.41
-21.83
-14.11
-8.38
-4.49
-2.20
-1.34
-1.76
-3.37
-5.91
-8.96
-11.94
-14.26
-15.50
-15.48
-14.34
-12.39
-10.00
-7.58
-5.49
-4.10
-3.74
-4.64
-6.87
-10.22
-14.27
-18.44
-22.20
-25.15
-27.15
-28.34
-29.05
-29.80
-31.18
-33.74
-37.68
-42.66
-47.63
-51.00
-51.06
-46.57
-37.29
-24.15
-8.99
6.09
19.27
29.47
36.40
40.33
41.69
40.76
37.66
32.47
25.54
17.58
9.62
2.66
-2.64
-6.19
-8.44
-10.11
-11.76
-13.62
-15.52
-17.14
-18.25
-18.91
-19.39
-20.05
-21.13
-22.72
-24.77
-27.13
-29.63
-32.20
-34.84
-37.68
-40.96
-44.95
-49.96
-56.13
-63.41
-71.33
-79.00
-85.07
-88.02
-86.51
-79.76
-67.91
-51.97
-33.64
-14.89
2.50
17.22
28.59
36.35
40.70
42.02
40.89
37.98
34.03
29.82
26.02
23.14
21.47
21.05
21.70
23.06
24.74
26.31
27.39
27.67
26.90
24.91
21.62
17.06
11.36
4.78
-2.35
-9.55
-16.38
-22.46
-27.56
-31.58
-34.67
-37.20
-39.74
-43.04
-47.83
-54.60
-63.35
-73.52
-83.92
-92.95
-99.01
-100.80
-97.76
-90.15
-79.03
-66.05
-53.03
-41.55
-32.60
-26.52
-23.04
-21.63
-21.72
-22.98
-25.25
-28.39
-32.11
-35.74
-38.22
-38.17
-34.22
-25.33
-11.13
7.74
29.67
52.22
72.69
88.76
99.13
103.73
103.59
100.25
95.21
89.46
83.37
76.98
70.23
63.26
56.34
49.77
43.63
37.77
31.85
25.54
18.58
10.85
2.37
-6.75
-16.10
-24.97
-32.19
-36.27
-35.71
-29.58
-17.94
-2.04
15.97
33.61
48.78
60.17
67.38
70.70
70.73
68.18
63.70
57.96
51.64
45.45
40.01
35.78
33.01
31.74
31.81
32.88
34.44
35.98
37.01
37.33
36.85
35.65
33.72
30.96
27.21
22.43
16.76
10.61
4.52
-1.04
-5.85
-10.02
-13.95
-18.17
-23.18
-29.31
-36.61
-44.76
-53.12
-60.64
-66.11
-68.27
-66.12
-59.14
-47.53
-32.22
-14.74
3.10
19.56
33.28
43.49
50.00
53.05
53.05
50.55
46.20
40.75
35.10
30.17
26.70
25.16
25.59
27.76
31.23
35.50
39.99
44.11
47.28
49.03
49.17
47.82
45.37
42.32
39.05
35.68
32.21
28.63
25.06
21.77
19.05
16.98
15.37
13.78
11.74
8.99
5.54
1.54
-2.76
-7.13
-11.24
-14.41
-15.56
-13.26
-6.24
6.21
23.81
45.31
68.89
92.70
115.37
135.91
153.39
166.36
172.92
171.21
160.49
141.88
118.35
93.80
71.63
53.57
39.48
28.14
18.42
10.00
3.43
-0.66
-2.27
-2.30
-2.16
-3.04
-5.34
-8.71
-12.42
-15.93
-19.22
-22.75
-27.08
-32.54
-39.05
-46.13
-53.17
-59.68
-65.44
-70.52
-75.16
-79.64
-84.26
-89.29
-95.03
-101.74
-109.46
-117.72
-125.42
-130.88
-132.27
-128.15
-117.96
-102.35
-82.86
-61.59
-40.56
-21.38
-5.01
8.04
17.61
23.74
26.59
26.54
24.15
20.17
15.42
10.62
6.34
2.86
0.29
-1.37
-2.12
-1.96
-1.00
0.46
1.90
2.68
2.28
0.51
-2.38
-5.85
-9.39
-12.76
-16.06
-19.60
-23.53
-27.70
-31.63
-34.79
-36.85
-37.84
-38.11
-38.07
-37.98
-37.93
-37.95
-38.21
-38.97
-40.35
-42.03
-42.99
-41.68
-36.49
-26.39
-11.42
7.18
27.31
46.63
63.26
76.21
85.43
91.57
95.54
98.25
100.56
103.31
107.16
112.34
118.22
123.14
124.82
121.25
111.64
96.90
79.42
62.03
46.92
34.98
25.93
18.93
13.30
8.82
5.47
3.09
1.04
-1.65
-5.86
-11.95
-19.50
-27.56
-34.96
-40.97
-45.55
-49.44
-53.77
-59.62
-67.47
-76.92
-86.74
-95.15
-100.34
-100.95
-96.47
-87.27
-74.53
-59.90
-45.09
-31.50
-19.97
-10.81
-3.97
0.69
3.27
3.85
2.62
0.03
-3.25
-6.43
-8.89
-10.30
-10.68
-10.28
-9.35
-8.13
-6.78
-5.53
-4.72
-4.74
-5.85
-8.00
-10.84
-13.83
-16.48
-18.55
-20.14
-21.57
-23.24
-25.42
-28.03
-30.73
-32.90
-33.94
-33.53
-31.83
-29.51
-27.55
-26.75
-27.36
-28.78
-29.64
-28.13
-22.45
-11.36
5.34
26.49
49.54
71.04
87.54
96.58
97.53
91.61
81.35
69.46
57.98
47.91
39.39
32.24
26.37
21.98
19.35
18.57
19.44
21.45
23.99
26.43
28.27
29.10
28.67
26.86
23.71
19.35
14.04
8.11
1.92
-4.16
-9.81
-14.80
-19.12
-22.85
-26.23
-29.53
-32.99
-36.76
-40.82
-45.02
-49.17
-53.24
-57.34
-61.70
-66.50
-71.50
-75.95
-78.58
-77.98
-73.08
-63.66
-50.49
-35.16
-19.66
-5.79
5.20
12.75
16.89
18.04
16.77
13.68
9.36
4.34
-0.87
-5.76
-9.83
-12.56
-13.53
-12.42
-9.10
-3.73
3.25
11.12
18.99
26.05
31.75
36.09
39.54
42.93
47.20
53.13
60.99
70.31
79.70
87.02
89.96
86.73
76.84
61.41
42.75
23.52
5.88
-9.20
-21.85
-32.73
-42.41
-50.88
-57.54
-61.50
-61.91
-58.38
-51.04
-40.54
-28.00
-14.72
-2.00
9.07
17.70
23.34
25.73
24.85
21.08
15.25
8.53
2.22
-2.66
-5.55
-6.48
-5.89
-4.32
-2.28
-0.06
2.08
3.94
5.27
5.85
5.58
4.48
2.68
0.30
-2.57
-5.97
-9.88
-14.19
-18.68
-23.03
-26.91
-30.07
-32.46
-34.17
-35.46
-36.63
-37.97
-39.70
-41.89
-44.48
-47.20
-49.49
-50.48
-49.13
-44.41
-35.70
-23.03
-7.20
10.41
28.22
44.84
59.36
71.33
80.68
87.55
92.27
95.38
97.67
100.04
103.34
108.05
114.24
121.58
129.55
137.60
145.23
151.85
156.71
158.80
157.08
150.78
139.74
124.45
105.92
85.37
63.78
41.73
19.38
-3.17
-25.71
-47.84
-69.12
-89.42
-108.99
-128.32
-147.73
-167.02
-185.39
-201.73
-215.16
-225.36
-232.59
-237.23
-239.35
-238.35
-233.14
-222.56
-206.02
-183.97
-157.86
-129.86
-102.31
-77.18
-55.72
-38.32
-24.71
-14.13
-5.70
1.33
7.41
12.80
17.73
22.43
27.23
32.39
38.01
43.83
49.40
54.14
57.62
59.69
60.36
59.73
57.84
54.64
50.17
44.65
38.57
32.52
27.01
22.23
18.04
14.02
9.75
5.00
-0.16
-5.43
-10.42
-14.94
-19.17
-23.53
-28.59
-34.75
-41.92
-49.52
-56.46
-61.51
-63.47
-61.51
-55.36
-45.30
-32.26
-17.49
-2.42
11.67
23.85
33.59
40.70
45.18
47.12
46.71
44.35
40.72
36.74
33.40
31.53
31.60
33.61
37.23
41.84
46.85
51.73
56.16
59.90
62.83
64.89
65.99
66.08
65.10
63.09
60.24
56.98
53.84
51.25
49.29
47.53
45.15
41.37
35.94
29.40
22.95
17.86
14.80
13.42
12.46
10.30
5.69
-1.69
-11.15
-21.21
-30.00
-35.67
-36.62
-31.86
-21.29
-6.01
11.72
29.01
43.15
52.56
57.31
58.94
59.57
60.67
62.20
62.53
59.43
51.17
37.66
20.57
2.76
-12.93
-24.58
-31.60
-34.43
-33.82
-30.39
-24.50
-16.55
-7.35
1.75
9.19
13.83
15.39
14.66
13.13
12.29
12.92
14.71
16.45
16.70
14.54
10.06
4.32
-1.13
-4.99
-6.72
-6.80
-6.53
-7.46
-10.91
-17.50
-26.91
-37.90
-48.55
-56.75
-60.70
-59.43
-53.01
-42.44
-29.24
-14.98
-0.95
12.03
23.51
33.25
41.11
46.87
50.20
50.61
47.63
41.10
31.51
20.27
9.44
1.22
-3.03
-3.41
-1.57
-0.02
-1.14
-6.17
-14.91
-26.01
-37.75
-48.74
-58.22
-65.94
-71.73
-75.25
-76.04
-73.86
-69.06
-62.68
-56.23
-51.13
-48.24
-47.56
-48.41
-49.71
-50.58
-50.62
-50.00
-49.30
-49.30
-50.64
-53.77
-58.62
-64.65
-70.77
-75.43
-77.03
-74.27
-66.52
-54.06
-37.98
-19.92
-1.61
15.39
30.03
41.69
50.17
55.48
57.85
57.64
55.41
51.92
48.03
44.60
42.25
41.28
41.61
42.93
44.85
47.00
49.15
51.13
52.89
54.32
55.38
56.00
56.06
55.41
53.89
51.35
47.76
43.29
38.16
32.72
27.30
22.11
17.32
12.98
9.13
5.82
3.21
1.36
0.26
-0.35
-0.96
-2.09
-4.16
-7.16
-10.73
-14.13
-16.54
-17.23
-15.58
-11.17
-3.73
6.70
19.65
34.17
49.00
62.87
74.85
84.30
90.67
93.12
90.42
81.38
65.46
43.54
18.01
-7.68
-30.13
-47.04
-57.76
-63.29
-65.53
-66.47
-67.63
-69.69
-72.70
-76.26
-79.83
-82.88
-84.95
-85.82
-85.43
-83.87
-81.26
-77.66
-73.05
-67.40
-60.84
-53.64
-46.23
-38.89
-31.78
-24.84
-18.01
-11.42
-5.46
-0.66
2.56
4.02
3.77
1.89
-1.60
-6.68
-13.05
-19.80
-25.45
-28.22
-26.65
-20.12
-9.11
4.99
20.37
35.22
48.26
58.72
66.37
71.34
73.98
74.73
74.08
72.44
70.12
67.38
64.45
61.57
59.09
57.36
56.73
57.46
59.60
62.97
67.13
71.40
74.97
77.08
77.26
75.54
72.52
69.18
66.46
64.70
63.28
60.70
55.07
44.89
29.75
10.60
-10.50
-31.07
-48.88
-62.59
-71.97
-77.84
-81.75
-85.56
-90.89
-98.70
-109.05
-121.03
-133.07
-143.31
-149.98
-151.76
-147.89
-138.25
-123.39
-104.51
-83.30
-61.68
-41.39
-23.70
-9.20
2.15
10.73
17.03
21.53
24.60
26.65
28.09
29.37
30.88
32.84
35.30
38.17
41.28
44.43
47.42
50.01
52.00
53.23
53.62
53.16
51.85
49.62
46.33
41.91
36.48
30.42
24.26
18.52
13.42
8.88
4.53
0.06
-4.60
-9.22
-13.39
-16.77
-19.32
-21.33
-23.35
-26.00
-29.72
-34.68
-40.68
-47.15
-53.06
-57.07
-57.71
-53.75
-44.68
-30.90
-13.76
4.81
22.89
38.94
52.18
62.38
69.70
74.43
76.89
77.50
76.87
75.72
74.84
74.79
75.76
77.53
79.49
80.82
80.60
78.11
72.98
65.27
55.43
43.97
31.32
17.65
3.11
-12.01
-26.98
-40.69
-52.00
-60.15
-65.15
-67.77
-69.18
-70.55
-72.50
-75.06
-77.71
-79.75
-80.63
-80.19
-78.60
-76.32
-73.89
-71.80
-70.42
-69.95
-70.35
-71.20
-71.54
-70.07
-65.35
-56.39
-43.08
-26.46
-8.48
8.57
22.77
33.05
39.33
42.23
42.64
41.32
38.70
34.99
30.42
25.39
20.60
16.85
14.88
15.12
17.60
21.88
27.28
32.99
38.19
42.27
44.85
45.81
45.29
43.67
41.39
38.83
36.15
33.28
30.14
26.74
23.36
20.44
18.37
17.18
16.47
15.49
13.43
9.85
4.72
-1.52
-8.16
-14.35
-19.28
-22.25
-22.76
-20.83
-16.97
-12.18
-7.53
-3.75
-0.95
1.39
4.02
7.47
11.54
15.27
17.15
15.71
10.16
0.68
-11.49
-24.58
-36.72
-46.49
-53.12
-56.41
-56.50
-53.67
-48.27
-40.86
-32.36
-23.93
-16.79
-11.70
-8.77
-7.43
-6.79
-6.13
-5.20
-4.37
-4.24
-5.38
-8.00
-11.76
-16.09
-20.35
-24.20
-27.62
-30.92
-34.67
-39.46
-45.74
-53.55
-62.31
-70.76
-77.17
-79.70
-77.06
-68.90
-56.02
-40.10
-23.23
-7.35
6.20
16.74
24.15
28.62
30.45
30.05
27.90
24.63
20.94
17.45
14.58
12.55
11.44
11.21
11.92
13.56
16.10
19.35
22.96
26.42
29.19
30.77
30.83
29.32
26.45
22.72
18.68
14.74
11.06
7.51
3.91
0.20
-3.41
-6.51
-8.73
-9.99
-10.64
-11.34
-12.87
-15.74
-20.10
-25.51
-31.07
-35.52
-37.51
-35.83
-29.75
-19.23
-4.90
12.03
30.18
48.39
65.94
82.57
98.00
111.54
121.72
126.60
124.44
114.55
97.85
76.83
54.84
35.06
19.68
9.56
4.37
3.13
4.70
8.03
12.10
16.00
18.79
19.69
18.29
14.67
9.46
3.64
-1.78
-6.10
-9.19
-11.48
-13.75
-16.69
-20.62
-25.32
-30.17
-34.41
-37.54
-39.50
-40.64
-41.66
-43.30
-46.24
-50.73
-56.56
-62.86
-68.19
-70.84
-69.21
-62.42
-50.59
-34.89
-17.23
0.34
16.03
28.74
37.96
43.76
46.43
46.44
44.30
40.61
36.10
31.53
27.67
25.11
24.22
25.02
27.24
30.48
34.30
38.34
42.29
45.78
48.41
49.77
49.64
48.15
45.82
43.36
41.43
40.29
39.72
39.08
37.66
35.09
31.50
27.58
24.23
22.20
21.58
21.69
21.01
17.70
10.12
-2.49
-19.44
-38.56
-56.47
-69.66
-75.50
-73.25
-64.42
-52.21
-40.49
-32.46
-29.68
-31.95
-37.77
-45.15
-52.48
-58.72
-63.31
-65.89
-66.09
-63.68
-58.65
-51.54
-43.19
-34.54
-26.29
-18.65
-11.58
-4.89
1.38
6.85
10.97
13.15
13.09
10.90
7.11
2.51
-2.08
-6.04
-9.16
-11.63
-13.96
-16.68
-20.10
-24.14
-28.42
-32.49
-36.08
-39.35
-42.82
-47.14
-52.74
-59.40
-66.08
-71.08
-72.42
-68.53
-58.82
-43.98
-25.75
-6.50
11.54
26.79
38.53
46.79
52.02
54.78
55.57
54.84
53.00
50.56
48.06
46.11
45.16
45.52
47.25
50.20
54.11
58.77
63.99
69.54
75.01
79.64
82.48
82.61
79.58
73.54
65.21
55.47
45.04
34.19
22.96
11.40
-0.17
-11.10
-20.69
-28.51
-34.54
-39.15
-42.88
-46.22
-49.59
-53.40
-58.12
-64.14
-71.56
-79.87
-87.84
-93.71
-95.65
-92.40
-83.65
-70.26
-53.91
-36.67
-20.47
-6.69
3.96
11.40
15.95
18.14
18.53
17.65
16.01
14.03
12.10
10.57
9.82
10.15
11.74
14.49
18.07
21.94
25.45
28.14
29.75
30.26
29.79
28.48
26.41
23.65
20.30
16.53
12.59
8.66
4.89
1.31
-2.11
-5.41
-8.69
-11.95
-15.20
-18.35
-21.28
-23.94
-26.49
-29.40
-33.27
-38.76
-46.00
-54.37
-62.43
-68.19
-69.71
-65.75
-56.29
-42.43
-26.11
-9.42
5.94
18.91
29.07
36.34
40.80
42.54
41.79
38.98
34.82
30.19
25.92
22.72
20.99
20.93
22.54
25.71
30.12
35.24
40.38
44.81
47.95
49.54
49.71
48.92
47.73
46.60
45.70
44.96
44.11
42.93
41.35
39.46
37.63
36.44
36.56
38.44
41.87
45.64
47.54
44.91
35.58
18.79
-4.25
-30.55
-56.14
-77.17
-90.85
-95.84
-92.24
-81.20
-64.59
-44.73
-24.13
-5.15
10.40
21.56
28.33
31.51
32.26
31.61
30.19
28.24
25.82
23.07
20.40
18.37
17.46
17.88
19.52
22.02
24.99
28.01
30.75
32.80
33.75
33.24
31.08
27.33
22.28
16.39
10.10
3.77
-2.35
-8.19
-13.75
-19.11
-24.34
-29.47
-34.46
-39.22
-43.63
-47.66
-51.44
-55.22
-59.42
-64.46
-70.68
-78.07
-86.12
-93.73
-99.26
-100.97
-97.41
-88.10
-73.69
-55.87
-36.83
-18.63
-2.72
10.21
20.19
27.77
33.84
39.52
45.86
53.45
62.05
70.47
76.91
79.65
77.86
72.03
63.71
54.90
47.26
41.64
38.01
35.81
34.31
32.88
31.05
28.41
24.69
19.76
13.84
7.54
1.72
-2.78
-5.53
-6.68
-7.00
-7.53
-9.24
-12.54
-17.21
-22.50
-27.55
-31.79
-35.22
-38.39
-42.12
-47.17
-53.89
-61.97
-70.38
-77.49
-81.50
-80.79
-74.47
-62.58
-46.21
-27.18
-7.63
10.47
25.64
37.08
44.59
48.42
49.15
47.53
44.35
40.39
36.30
32.49
29.13
26.22
23.73
21.78
20.63
20.54
21.57
23.37
25.23
26.27
25.69
23.20
18.94
13.53
7.72
2.24
-2.53
-6.50
-9.84
-12.89
-15.93
-19.16
-22.56
-25.96
-29.08
-31.72
-33.87
-35.63
-37.25
-38.96
-41.01
-43.57
-46.70
-50.10
-52.97
-53.99
-51.48
-44.00
-30.71
-11.86
11.37
37.26
64.06
90.27
114.47
134.96
149.50
155.66
151.64
137.24
114.36
86.69
58.70
34.22
15.47
2.87
-4.51
-8.08
-9.07
-8.27
-6.34
-3.95
-2.02
-1.41
-2.67
-5.80
-10.18
-14.92
-19.12
-22.34
-24.71
-26.90
-29.70
-33.67
-38.81
-44.51
-49.80
-53.77
-56.00
-56.65
-56.45
-56.37
-57.36
-60.17
-65.14
-72.16
-80.46
-88.62
-94.68
-96.60
-92.80
-82.75
-67.20
-48.00
-27.65
-8.53
7.55
19.71
27.85
32.44
34.14
33.64
31.61
28.70
25.68
23.30
22.13
22.39
23.81
25.88
28.07
30.16
32.30
34.83
37.86
41.01
43.42
44.08
42.29
38.06
32.10
25.57
19.50
14.41
10.05
5.75
0.69
-5.49
-12.50
-19.49
-25.36
-29.22
-30.69
-29.98
-27.69
-24.64
-21.69
-19.74
-19.52
-21.28
-24.50
-27.67
-28.76
-25.87
-18.25
-6.67
6.79
19.58
29.79
36.63
40.45
42.07
42.17
40.89
38.05
33.58
27.83
21.69
16.27
12.53
10.93
11.34
13.21
15.85
18.76
21.67
24.54
27.23
29.42
30.53
29.91
27.26
22.71
16.98
10.98
5.53
0.88
-3.24
-7.50
-12.51
-18.44
-24.89
-31.06
-36.13
-39.64
-41.78
-43.30
-45.25
-48.62
-53.90
-60.88
-68.45
-74.96
-78.44
-77.18
-70.25
-57.79
-41.02
-21.95
-2.89
14.14
27.75
37.34
43.02
45.33
45.02
42.88
39.61
35.79
31.96
28.54
25.98
24.60
24.56
25.76
27.84
30.27
32.52
34.24
35.30
35.66
35.33
34.14
31.85
28.21
23.21
17.16
10.54
3.91
-2.37
-8.13
-13.34
-17.95
-21.92
-25.21
-27.97
-30.65
-33.92
-38.44
-44.55
-51.90
-59.38
-65.25
-67.68
-65.26
-57.51
-45.00
-29.21
-12.04
4.62
19.24
30.83
38.85
43.21
44.18
42.34
38.46
33.41
27.97
22.71
18.09
14.44
11.98
10.82
10.90
11.91
13.40
14.89
15.88
15.93
14.63
11.76
7.24
1.31
-5.49
-12.52
-19.25
-25.46
-31.25
-36.88
-42.48
-47.90
-52.70
-56.31
-58.39
-58.98
-58.65
-58.30
-58.97
-61.49
-66.21
-72.82
-80.26
-86.84
-90.61
-89.79
-83.26
-70.86
-53.55
-33.08
-11.68
8.52
25.81
39.13
48.05
52.67
53.48
51.23
46.82
41.21
35.36
30.09
26.02
23.52
22.70
23.39
25.22
27.68
30.17
32.16
33.28
33.27
32.02
29.53
25.89
21.26
15.89
10.05
4.00
-2.13
-8.35
-14.82
-21.79
-29.48
-37.90
-46.86
-55.94
-64.76
-73.12
-81.26
-89.67
-98.92
-109.18
-120.04
-130.40
-138.70
-143.36
-143.16
-137.58
-126.91
-112.26
-95.35
-78.13
-62.44
-49.63
-40.33
-34.50
-31.58
-30.76
-31.08
-31.56
-31.25
-29.23
-24.80
-17.64
-7.93
3.71
16.32
28.86
40.30
49.83
56.90
61.32
63.24
63.11
61.49
58.87
55.55
51.59
46.99
41.83
36.35
30.94
25.94
21.43
17.18
12.72
7.48
1.04
-6.74
-15.66
-25.22
-34.68
-43.05
-49.18
-51.87
-50.07
-43.23
-31.60
-16.28
0.90
17.89
32.87
44.68
52.92
57.78
59.72
59.28
57.01
53.60
49.95
47.10
46.02
47.32
50.98
56.49
62.98
69.56
75.56
80.50
84.13
86.18
86.35
84.33
79.86
72.97
64.04
53.79
43.17
33.01
23.77
15.45
7.59
-0.45
-9.09
-18.28
-27.33
-35.01
-39.82
-40.42
-35.90
-26.06
-11.43
6.88
27.34
48.40
68.61
86.89
102.54
115.15
124.66
131.21
135.24
137.45
138.81
140.49
143.57
148.78
156.17
165.07
174.20
182.24
188.22
191.86
193.46
193.54
192.38
189.70
184.79
176.94
165.91
152.26
137.15
121.93
107.46
93.81
80.24
65.70
49.22
30.45
9.82
-11.58
-32.21
-50.45
-64.93
-74.73
-79.55
-79.73
-76.21
-70.25
-63.24
-56.41
-50.72
-46.72
-44.60
-44.20
-45.07
-46.65
-48.32
-49.56
-49.97
-49.36
-47.77
-45.39
-42.54
-39.55
-36.62
-33.72
-30.65
-27.10
-22.87
-18.04
-13.06
-8.62
-5.46
-4.14
-4.81
-7.29
-11.07
-15.59
-20.31
-24.84
-29.03
-32.94
-36.89
-41.26
-46.31
-51.80
-56.88
-60.13
-60.01
-55.49
-46.49
-33.99
-19.70
-5.46
7.29
17.79
25.88
31.75
35.65
37.75
38.08
36.70
33.84
29.92
25.66
21.84
19.21
18.23
18.97
21.07
23.91
26.82
29.23
30.83
31.51
31.29
30.23
28.35
25.60
21.99
17.59
12.61
7.31
1.98
-3.15
-7.97
-12.43
-16.51
-20.33
-24.10
-28.22
-33.07
-38.75
-44.86
-50.34
-53.74
-53.61
-49.05
-39.98
-27.24
-12.33
2.94
16.95
28.37
36.34
40.51
40.86
37.74
31.76
23.69
14.34
4.49
-5.26
-14.46
-22.92
-30.58
-37.41
-43.38
-48.35
-52.18
-54.85
-56.56
-57.81
-59.24
-61.55
-65.17
-70.17
-76.17
-82.43
-88.15
-92.70
-95.88
-97.95
-99.53
-101.42
-104.36
-108.92
-115.21
-122.77
-130.35
-136.18
-138.22
-134.85
-125.42
-110.56
-92.04
-72.23
-53.39
-37.12
-24.19
-14.64
-8.18
-4.45
-3.13
-3.95
-6.41
-9.70
-12.73
-14.35
-13.73
-10.63
-5.42
1.04
7.77
13.94
19.06
23.02
25.86
27.72
28.68
28.80
28.03
26.24
23.20
18.69
12.54
4.84
-4.01
-13.33
-22.29
-30.23
-36.84
-42.33
-47.37
-52.86
-59.47
-67.25
-75.43
-82.34
-85.89
-84.11
-75.81
-61.03
-41.08
-18.18
5.19
26.88
45.49
60.32
71.26
78.40
81.89
81.92
78.87
73.42
66.54
59.40
53.10
48.46
45.90
45.47
46.97
50.10
54.60
60.21
66.66
73.50
80.11
85.72
89.70
91.73
92.04
91.35
90.61
90.78
92.45
95.84
100.82
107.06
114.02
120.84
126.36
129.17
127.99
122.08
111.60
97.48
81.16
64.19
47.94
33.72
22.75
16.19
14.68
17.91
24.43
31.85
37.67
40.08
38.54
33.73
27.12
20.25
14.14
9.15
4.95
0.88
-3.75
-9.30
-15.76
-22.69
-29.46
-35.60
-40.90
-45.46
-49.44
-52.92
-55.67
-57.46
-58.25
-58.42
-58.76
-60.09
-62.88
-66.93
-71.53
-75.62
-78.32
-79.24
-78.51
-76.74
-74.68
-72.98
-72.09
-72.22
-73.45
-75.77
-79.12
-83.21
-87.39
-90.54
-91.18
-87.86
-79.52
-66.01
-48.03
-27.03
-4.71
17.24
37.48
55.00
69.15
79.53
85.90
88.19
86.43
80.88
72.07
60.87
48.57
36.60
26.33
18.62
13.68
11.01
9.77
9.07
8.30
7.19
5.73
4.04
2.20
0.25
-1.85
-4.21
-6.95
-10.20
-13.95
-18.14
-22.51
-26.83
-30.92
-34.75
-38.37
-41.80
-45.04
-48.12
-51.20
-54.64
-58.83
-63.80
-68.98
-73.01
-74.07
-70.59
-61.79
-48.19
-31.49
-14.02
2.02
15.08
24.52
30.47
33.39
33.79
32.00
28.30
23.06
16.90
10.63
5.02
0.53
-2.81
-5.26
-7.11
-8.41
-8.88
-8.09
-5.77
-1.99
2.77
7.79
12.39
16.13
18.88
20.71
21.74
22.01
21.46
20.01
17.64
14.46
10.74
6.79
2.98
-0.54
-3.85
-7.26
-11.11
-15.63
-20.51
-24.97
-27.87
-27.99
-24.45
-16.95
-5.91
7.57
21.86
34.99
45.13
50.99
52.28
49.77
45.09
40.15
36.48
34.67
34.32
34.37
33.60
31.17
26.87
21.10
14.64
8.36
3.03
-0.89
-3.28
-4.36
-4.63
-4.76
-5.53
-7.61
-11.38
-16.85
-23.63
-30.97
-37.97
-43.86
-48.12
-50.65
-51.68
-51.77
-51.56
-51.65
-52.38
-53.82
-55.73
-57.76
-59.65
-61.43
-63.46
-66.32
-70.43
-75.75
-81.45
-86.07
-87.85
-85.31
-77.73
-65.45
-49.75
-32.49
-15.61
-0.74
11.08
19.38
24.20
25.98
25.34
23.08
19.94
16.59
13.64
11.55
10.77
11.66
14.51
19.36
25.98
33.81
41.95
49.39
55.12
58.44
59.10
57.41
54.14
50.17
46.12
42.10
37.74
32.42
25.66
17.42
8.13
-1.44
-10.55
-18.59
-25.33
-30.79
-35.22
-39.07
-42.89
-47.24
-52.41
-58.26
-64.01
-68.32
-69.54
-66.12
-57.07
-42.36
-23.11
-1.51
19.61
37.50
50.15
56.80
58.05
55.42
50.74
45.47
40.44
35.79
31.43
27.27
23.50
20.43
18.29
17.11
16.64
16.63
16.92
17.50
18.43
19.61
20.74
21.36
21.04
19.54
16.99
13.66
9.86
5.77
1.35
-3.49
-8.81
-14.49
-20.35
-26.11
-31.54
-36.53
-41.16
-45.70
-50.62
-56.40
-63.28
-71.05
-78.88
-85.46
-89.31
-89.15
-84.32
-74.88
-61.60
-45.72
-28.73
-12.12
2.83
15.13
24.27
30.23
33.44
34.56
34.33
33.34
31.90
30.21
28.39
26.72
25.56
25.28
26.14
28.15
31.04
34.40
37.83
40.99
43.67
45.73
47.08
47.71
47.69
47.14
46.13
44.59
42.23
38.69
33.73
27.38
20.07
12.57
5.75
0.39
-3.13
-4.91
-5.56
-5.89
-6.71
-8.38
-10.71
-12.98
-14.26
-13.69
-10.86
-5.86
0.72
7.98
14.91
20.54
24.17
25.39
24.08
20.33
14.25
5.96
-4.36
-16.14
-28.41
-39.83
-49.09
-55.31
-58.35
-58.73
-57.29
-54.74
-51.35
-47.04
-41.64
-35.24
-28.32
-21.59
-15.76
-11.20
-8.03
-6.19
-5.65
-6.47
-8.76
-12.44
-17.14
-22.24
-27.08
-31.25
-34.66
-37.56
-40.37
-43.44
-47.06
-51.38
-56.37
-61.70
-66.63
-69.98
-70.40
-66.71
-58.39
-45.82
-30.25
-13.50
2.55
16.35
27.01
34.37
38.81
41.02
41.73
41.43
40.43
38.82
36.72
34.39
32.26
30.81
30.52
31.56
33.84
36.97
40.38
43.49
45.87
47.36
48.03
48.19
48.12
47.95
47.59
46.74
45.17
42.83
39.97
37.09
34.78
33.54
33.66
35.08
37.36
39.68
40.86
39.55
34.66
25.76
13.54
-0.25
-13.03
-22.29
-26.29
-24.74
-18.84
-10.81
-3.03
2.77
5.91
6.67
5.87
4.27
2.30
0.04
-2.51
-5.25
-7.83
-9.86
-10.93
-10.85
-9.59
-7.28
-4.21
-0.70
2.80
5.86
8.13
9.41
9.67
8.97
7.42
5.01
1.76
-2.30
-6.93
-11.79
-16.41
-20.49
-23.98
-27.17
-30.51
-34.47
-39.26
-44.82
-50.93
-57.28
-63.55
-69.33
-73.83
-76.00
-74.68
-68.92
-58.50
-44.15
-27.46
-10.44
4.97
17.44
26.43
32.07
34.98
35.80
35.12
33.34
30.71
27.54
24.26
21.34
19.28
18.38
18.71
20.14
22.44
25.39
28.87
32.74
36.85
40.84
44.14
46.10
46.13
44.02
40.05
34.92
29.51
24.49
20.08
16.03
11.89
7.40
2.69
-1.80
-5.67
-8.86
-11.76
-15.04
-19.16
-24.12
-29.45
-34.32
-37.91
-39.50
-38.61
-34.84
-28.05
-18.43
-6.71
5.83
17.70
27.62
34.95
39.81
42.86
44.82
46.26
47.40
48.40
49.52
51.18
53.76
57.19
60.91
63.86
64.87
62.98
57.75
49.28
38.14
25.30
11.86
-1.09
-12.75
-22.75
-31.28
-38.77
-45.65
-52.03
-57.57
-61.64
-63.58
-62.97
-59.85
-54.91
-49.56
-45.76
-45.59
-50.59
-61.15
-76.19
-93.39
-109.85
-122.80
-130.21
-130.87
-124.45
-111.30
-92.42
-69.52
-44.91
-21.23
-0.84
14.73
25.05
30.74
33.07
33.36
32.68
31.60
30.32
28.93
27.46
26.10
25.06
24.46
24.28
24.30
24.26
23.92
23.16
21.96
20.44
18.69
16.84
14.95
13.06
11.22
9.39
7.56
5.61
3.42
0.86
-2.11
-5.34
-8.56
-11.39
-13.56
-14.98
-15.82
-16.47
-17.37
-18.89
-21.19
-24.18
-27.47
-30.39
-31.90
-30.66
-25.31
-14.93
0.43
19.46
39.71
58.34
72.97
82.41
86.84
87.39
85.34
81.61
76.55
70.30
63.21
56.03
49.60
44.37
40.10
36.00
31.31
25.86
20.33
15.94
13.75
14.06
16.18
18.77
20.41
20.21
18.01
14.30
9.81
5.15
0.68
-3.49
-7.40
-11.13
-14.76
-18.45
-22.37
-26.66
-31.29
-36.06
-40.58
-44.55
-47.95
-51.17
-54.90
-59.77
-66.03
-73.24
-80.39
-86.00
-88.59
-86.95
-80.43
-69.15
-53.98
-36.51
-18.67
-2.40
10.82
20.29
26.06
28.81
29.41
28.64
27.00
24.74
22.03
19.14
16.56
14.92
14.95
17.22
22.17
29.90
40.17
52.17
64.37
74.63
80.46
79.84
71.94
57.71
39.72
21.35
5.70
-5.44
-11.94
-15.04
-16.61
-18.32
-21.17
-25.42
-30.86
-37.16
-44.03
-51.24
-58.58
-65.68
-72.26
-78.31
-84.23
-90.84
-98.93
-108.74
-119.46
-129.14
-135.20
-135.32
-128.32
-114.64
-96.24
-75.88
-56.28
-39.36
-26.00
-16.16
-9.31
-4.76
-2.01
-0.72
-0.65
-1.46
-2.64
-3.53
-3.42
-1.71
2.00
7.79
15.39
24.23
33.46
42.09
49.17
54.02
56.42
56.63
55.26
53.02
50.47
47.90
45.38
42.92
40.53
38.43
36.90
36.30
36.94
39.03
42.63
47.62
53.62
60.07
66.33
71.89
76.61
80.75
84.99
90.18
97.04
105.81
116.10
126.93
137.09
145.64
152.23
157.14
160.98
163.99
165.79
165.30
161.36
153.37
141.88
128.57
115.60
104.82
97.08
92.04
88.46
84.76
79.48
71.49
60.09
44.98
26.45
5.53
-16.05
-36.21
-53.27
-66.56
-76.73
-85.44
-94.43
-104.63
-115.78
-126.63
-135.67
-141.97
-145.42
-146.64
-146.43
-145.30
-143.45
-140.96
-138.15
-135.70
-134.48
-135.08
-137.50
-140.98
-144.13
-145.38
-143.31
-137.07
-126.44
-111.84
-94.14
-74.55
-54.34
-34.80
-17.04
-1.95
9.85
18.13
23.03
25.05
24.94
23.59
21.84
20.36
19.55
19.52
20.17
21.34
22.81
24.42
26.12
27.91
29.86
32.07
34.51
36.94
38.97
40.13
40.16
39.16
37.53
35.84
34.52
33.69
33.13
32.44
31.31
29.59
27.34
24.72
21.95
19.31
17.20
16.06
16.22
17.74
20.44
24.02
28.36
33.64
40.25
48.52
58.39
69.37
80.62
91.27
100.66
108.40
114.29
118.12
119.72
119.04
116.34
112.11
106.94
101.05
94.27
86.06
75.97
63.92
50.43
36.54
23.31
11.61
1.81
-6.09
-12.28
-16.99
-20.38
-22.63
-23.91
-24.56
-24.93
-25.47
-26.56
-28.50
-31.39
-35.04
-38.99
-42.53
-44.94
-45.63
-44.44
-41.78
-38.62
-36.50
-36.96
-41.19
-49.26
-60.02
-71.20
-80.19
-84.93
-84.63
-80.04
-73.01
-65.77
-60.11
-56.89
-56.03
-56.83
-58.44
-60.13
-61.44
-61.99
-61.43
-59.29
-55.22
-49.13
-41.42
-32.90
-24.50
-16.97
-10.52
-4.76
1.03
7.50
14.84
22.67
30.17
36.51
41.21
44.32
46.36
47.98
49.72
51.68
53.66
55.20
55.93
55.69
54.64
53.09
51.25
49.15
46.33
41.99
35.09
24.71
10.43
-7.31
-27.14
-46.80
-63.54
-74.59
-77.81
-72.34
-59.14
-41.12
-22.61
-8.19
-1.26
-2.90
-11.71
-24.50
-37.72
-48.75
-56.39
-60.55
-61.60
-59.79
-55.15
-48.02
-39.31
-30.46
-23.02
-17.85
-14.87
-13.21
-11.77
-9.82
-7.31
-4.71
-2.74
-2.01
-2.71
-4.70
-7.56
-10.76
-13.80
-16.38
-18.44
-20.13
-21.75
-23.52
-25.60
-28.02
-30.74
-33.87
-37.61
-42.26
-47.94
-54.38
-60.79
-65.94
-68.39
-66.93
-60.97
-50.72
-37.19
-21.89
-6.45
7.72
19.64
28.78
35.04
38.56
39.72
39.00
36.99
34.27
31.43
28.95
27.15
26.19
26.06
26.63
27.63
28.73
29.57
29.81
29.22
27.75
25.49
22.60
19.27
15.56
11.53
7.22
2.69
-1.95
-6.70
-11.62
-16.87
-22.54
-28.62
-34.88
-41.03
-46.77
-52.02
-57.00
-62.14
-68.00
-74.97
-83.00
-91.38
-98.69
-103.01
-102.32
-95.17
-81.19
-61.32
-37.65
-12.91
10.20
29.72
44.65
55.31
63.20
70.71
80.47
94.40
112.83
134.14
155.08
171.77
181.00
181.13
172.48
156.80
136.59
114.29
91.93
71.03
52.71
37.65
25.94
17.12
10.21
4.13
-2.03
-8.64
-15.58
-22.34
-28.33
-33.09
-36.48
-38.64
-39.88
-40.62
-41.29
-42.39
-44.32
-47.37
-51.45
-55.99
-59.87
-61.63
-59.95
-54.07
-44.13
-31.13
-16.71
-2.45
10.43
21.39
30.30
37.26
42.23
45.00
45.40
43.54
40.00
35.75
31.87
29.29
28.50
29.54
31.93
34.85
37.20
37.88
36.16
31.99
26.23
20.35
15.98
14.05
14.34
15.37
15.04
11.46
3.85
-7.20
-20.02
-32.58
-43.33
-51.58
-57.62
-62.24
-66.32
-70.50
-75.05
-79.99
-85.12
-90.05
-94.03
-95.94
-94.44
-88.39
-77.30
-61.70
-43.18
-23.98
-6.46
7.57
17.28
22.83
25.16
25.45
24.71
23.48
21.96
20.15
18.18
16.36
15.13
14.91
15.84
17.79
20.33
23.01
25.26
26.63
26.70
25.20
22.11
17.73
12.67
7.54
2.86
-1.29
-5.20
-9.44
-14.56
-20.83
-28.12
-35.88
-43.37
-49.93
-55.44
-60.45
-66.06
-73.51
-83.36
-95.07
-106.76
-115.79
-119.69
-117.12
-108.56
-96.04
-82.47
-70.36
-61.13
-54.63
-49.62
-44.48
-37.99
-29.84
-20.49
-10.72
-1.03
8.68
19.34
32.52
50.30
74.91
108.03
149.68
197.03
243.95
282.00
302.88
301.47
277.94
237.72
189.31
141.03
98.27
62.66
33.24
8.37
-12.62
-29.36
-41.23
-48.59
-53.14
-57.52
-64.05
-73.74
-86.06
-99.22
-111.05
-119.76
-124.38
-124.68
-120.95
-113.74
-103.69
-91.49
-78.03
-64.35
-51.65
-41.11
-33.55
-29.34
-28.14
-29.02
-30.73
-32.00
-31.87
-29.88
-26.10
-20.94
-14.99
-8.92
-3.22
1.77
5.94
9.49
12.86
16.59
21.09
26.49
32.49
38.43
43.42
46.69
47.82
46.82
44.09
40.13
35.35
29.88
23.74
16.91
9.66
2.54
-3.66
-8.09
-9.99
-8.82
-4.23
3.97
15.64
30.42
47.65
66.43
85.76
104.56
121.67
135.87
145.95
150.90
150.23
144.29
134.32
122.29
110.40
100.50
93.77
90.47
90.17
92.02
95.10
98.61
101.94
104.64
106.21
105.98
102.99
96.17
84.61
67.98
46.87
22.78
-2.27
-26.40
-48.47
-68.32
-86.50
-103.72
-120.22
-135.55
-148.71
-158.55
-164.23
-165.27
-161.54
-153.09
-140.13
-123.17
-103.17
-81.64
-60.31
-40.82
-24.29
-11.15
-1.21
6.07
11.27
14.78
16.81
17.51
17.16
16.20
15.17
14.62
14.87
16.00
17.83
20.00
22.14
23.92
25.09
25.51
25.10
23.81
21.59
18.42
14.26
9.19
3.39
-2.78
-8.87
-14.43
-19.17
-23.05
-26.25
-29.18
-32.20
-35.70
-39.93
-44.92
-50.41
-55.74
-59.87
-61.45
-59.28
-52.59
-41.46
-26.84
-10.36
6.08
20.87
32.96
41.99
48.06
51.45
52.38
51.01
47.54
42.47
36.76
31.70
28.66
28.68
32.14
38.48
46.36
53.96
59.48
61.76
60.58
56.70
51.54
46.54
42.69
40.16
38.45
36.74
34.42
31.38
28.06
25.21
23.48
23.12
23.69
24.00
22.25
16.46
5.17
-11.90
-33.38
-56.35
-76.98
-91.60
-97.60
-94.11
-81.99
-63.59
-42.31
-22.04
-6.50
1.61
1.37
-5.99
-17.42
-29.11
-37.81
-41.83
-41.16
-37.01
-30.83
-23.73
-16.32
-8.95
-2.04
3.81
8.00
10.31
11.01
10.79
10.42
10.29
10.25
9.66
7.67
3.70
-2.17
-9.30
-16.65
-23.29
-28.84
-33.51
-37.99
-43.18
-49.75
-57.96
-67.55
-77.68
-87.02
-93.99
-97.09
-95.33
-88.70
-78.12
-65.24
-51.93
-39.59
-28.87
-19.71
-11.62
-4.09
3.15
10.10
16.53
22.19
26.92
30.63
33.40
35.48
37.21
38.89
40.73
42.72
44.76
46.84
49.22
52.38
56.83
62.79
70.19
78.78
88.36
98.61
108.79
117.43
122.30
121.08
112.21
95.60
72.80
46.23
18.31
-9.22
-35.39
-59.40
-80.10
-95.72
-104.41
-104.94
-97.44
-83.44
-65.44
-46.21
-27.99
-12.30
0.15
9.06
14.29
15.67
13.22
7.20
-1.63
-12.04
-22.56
-31.70
-38.34
-41.92
-42.55
-40.96
-38.16
-35.24
-32.89
-31.34
-30.30
-29.31
-28.01
-26.41
-24.90
-24.10
-24.54
-26.46
-29.66
-33.61
-37.61
-41.05
-43.58
-45.21
-46.21
-47.08
-48.31
-50.31
-53.26
-57.01
-61.10
-64.65
-66.56
-65.68
-61.13
-52.56
-40.39
-25.74
-10.16
4.61
17.16
26.51
32.32
34.81
34.60
32.49
29.23
25.35
21.16
16.93
12.95
9.73
7.90
8.08
10.60
15.26
21.43
28.17
34.61
40.24
44.91
48.76
52.08
55.38
59.67
66.72
78.52
96.29
119.05
142.95
162.05
170.28
164.02
143.58
113.03
78.30
44.80
15.88
-7.26
-24.54
-35.74
-40.17
-37.17
-27.20
-12.27
4.49
19.89
31.85
39.75
44.20
46.17
46.25
44.36
39.97
32.79
23.13
12.14
1.37
-7.75
-14.42
-18.68
-21.14
-22.64
-23.84
-25.04
-26.29
-27.51
-28.71
-30.01
-31.61
-33.67
-36.28
-39.33
-42.59
-45.77
-48.57
-50.89
-52.84
-54.76
-57.13
-60.43
-64.92
-70.46
-76.40
-81.52
-84.31
-83.30
-77.52
-66.87
-52.25
-35.36
-18.20
-2.62
10.04
19.10
24.38
26.06
24.54
20.41
14.45
7.58
0.74
-5.31
-10.11
-13.60
-15.97
-17.66
-19.06
-20.57
-22.32
-24.29
-26.25
-27.89
-29.08
-29.90
-30.81
-32.41
-35.25
-39.51
-45.01
-51.22
-57.62
-63.87
-69.97
-76.25
-83.18
-91.28
-100.95
-112.31
-125.12
-138.63
-151.63
-162.54
-169.87
-172.57
-170.47
-164.27
-155.38
-145.33
-135.36
-126.01
-117.27
-108.89
-100.89
-93.92
-89.12
-87.54
-89.50
-94.03
-99.00
-101.86
-100.57
-94.45
-84.30
-71.86
-58.95
-46.83
-35.98
-26.51
-18.62
-12.87
-9.91
-10.01
-12.72
-16.86
-21.09
-24.39
-26.47
-27.65
-28.50
-29.50
-30.81
-32.56
-35.07
-39.08
-45.57
-55.27
-68.07
-82.72
-96.98
-108.18
-114.07
-113.45
-106.41
-94.08
-78.09
-59.96
-40.70
-20.75
-0.29
20.40
40.67
59.53
75.81
88.71
98.07
104.49
109.11
113.15
117.38
122.02
126.87
131.62
136.20
140.88
146.00
151.69
157.60
162.87
166.42
167.34
165.25
160.42
153.72
146.19
138.71
131.67
124.91
117.89
110.00
100.79
90.15
78.19
65.15
51.47
37.81
25.21
15.06
8.82
7.58
11.70
20.58
32.87
46.80
60.65
73.11
83.36
90.97
95.73
97.57
96.60
93.14
87.88
81.77
75.93
71.32
68.62
68.04
69.39
72.17
75.75
79.48
82.74
85.05
86.02
85.44
83.32
79.84
75.44
70.65
66.08
62.17
59.12
56.80
54.73
52.30
48.90
44.27
38.63
32.73
27.66
24.55
24.24
26.99
32.46
39.77
47.83
55.49
61.86
66.27
68.36
68.08
65.68
61.67
56.78
51.81
47.41
43.95
41.56
40.24
40.00
40.97
43.37
47.31
52.64
58.84
65.05
70.17
73.04
72.78
69.05
62.25
53.38
43.65
33.99
24.71
15.50
5.93
-4.09
-13.86
-22.01
-27.00
-27.59
-23.18
-13.84
-0.10
17.10
36.48
56.31
74.59
89.46
99.67
104.92
105.86
103.74
99.88
95.12
89.74
83.55
76.38
68.44
60.54
53.93
49.82
48.89
50.96
55.07
59.87
64.11
67.00
68.24
67.73
65.31
60.70
53.59
43.90
31.94
18.32
3.75
-11.17
-26.05
-40.64
-54.61
-67.37
-78.00
-85.41
-88.68
-87.44
-82.08
-73.71
-63.90
-54.12
-45.49
-38.52
-33.33
-29.94
-28.41
-28.85
-31.03
-34.33
-37.71
-40.19
-41.30
-41.43
-41.68
-43.30
-47.12
-53.11
-60.44
-67.79
-73.92
-77.90
-79.21
-77.54
-72.76
-64.87
-54.17
-41.40
-27.65
-14.21
-2.26
7.38
14.22
18.00
18.47
15.46
9.01
-0.09
-10.08
-18.21
-21.35
-16.92
-3.85
16.84
42.25
68.35
91.22
108.00
117.46
119.91
116.59
109.10
98.89
87.26
75.44
64.68
56.20
50.76
48.25
47.59
46.95
44.44
38.84
30.03
18.96
7.09
-4.19
-14.16
-22.82
-30.74
-38.65
-47.04
-55.88
-64.72
-72.73
-79.10
-83.23
-84.95
-84.59
-82.84
-80.53
-78.39
-76.99
-76.54
-76.95
-77.74
-78.05
-76.77
-72.82
-65.54
-54.98
-42.00
-28.04
-14.78
-3.55
4.89
10.43
13.42
14.30
13.44
10.97
6.98
1.63
-4.60
-10.97
-16.57
-20.64
-22.79
-23.07
-21.98
-20.15
-18.17
-16.43
-15.11
-14.27
-14.01
-14.54
-16.20
-19.44
-24.50
-31.30
-39.31
-47.64
-55.29
-61.42
-65.64
-67.95
-68.68
-68.32
-67.36
-66.32
-65.68
-65.89
-67.08
-68.94
-70.65
-71.06
-69.01
-63.70
-55.04
-43.65
-30.84
-18.20
-7.33
0.52
4.68
5.15
2.39
-2.80
-9.53
-16.95
-24.22
-30.55
-35.30
-38.08
-38.91
-38.17
-36.48
-34.44
-32.40
-30.46
-28.58
-26.77
-25.21
-24.26
-24.27
-25.43
-27.62
-30.43
-33.28
-35.52
-36.69
-36.64
-35.70
-34.58
-34.28
-35.63
-39.00
-43.94
-49.29
-53.42
-54.69
-51.92
-44.69
-33.33
-18.85
-2.70
13.49
28.14
39.92
47.97
51.99
52.25
49.48
44.73
39.11
33.69
29.32
26.53
25.56
26.31
28.45
31.55
35.17
38.89
42.27
44.82
46.02
45.42
42.93
38.83
33.70
28.22
22.85
17.65
12.32
6.37
-0.63
-8.84
-18.13
-28.01
-37.68
-46.04
-51.86
-53.88
-51.11
-43.06
-29.91
-12.59
7.36
27.96
47.20
63.34
75.30
82.77
86.18
86.39
84.35
80.89
76.62
72.04
67.72
64.31
62.39
62.29
63.89
66.61
69.55
71.73
72.31
70.71
66.73
60.53
52.61
43.72
34.62
25.94
18.00
10.79
3.87
-3.37
-11.52
-20.81
-30.90
-40.74
-48.67
-52.80
-51.48
-43.90
-30.42
-12.56
7.30
26.63
43.39
56.38
65.39
70.93
73.79
74.71
74.11
72.08
68.56
63.45
56.87
49.23
41.22
33.71
27.55
23.36
21.32
21.03
21.65
22.06
21.19
18.30
13.23
6.38
-1.44
-9.23
-16.16
-21.85
-26.49
-30.83
-35.98
-42.94
-52.10
-62.90
-73.66
-82.01
-85.56
-82.78
-73.51
-59.14
-42.05
-24.89
-9.92
1.51
8.85
12.11
11.58
7.65
0.82
-8.32
-19.01
-30.45
-41.83
-52.54
-62.08
-70.26
-77.09
-82.81
-87.80
-92.46
-97.15
-102.03
-107.27
-112.99
-119.30
-126.27
-133.86
-141.85
-150.00
-158.14
-166.38
-175.08
-184.56
-194.70
-204.57
-212.35
-215.59
-212.02
-200.24
-180.33
-153.90
-123.64
-92.64
-63.57
-38.24
-17.50
-1.39
10.44
18.54
23.43
25.71
26.01
24.99
23.34
21.60
20.18
19.35
19.24
19.85
21.10
22.75
24.40
25.52
25.48
23.81
20.34
15.24
9.04
2.37
-4.27
-10.84
-17.73
-25.67
-35.22
-46.33
-58.05
-68.45
-75.11
-75.76
-69.00
-54.66
-33.92
-8.88
17.86
43.83
67.03
86.20
100.84
111.07
117.51
120.96
122.24
122.03
120.94
119.48
118.17
117.49
117.76
119.13
121.52
124.72
128.50
132.53
136.48
139.87
142.27
143.41
143.35
142.43
140.99
139.04
136.09
131.26
123.66
112.81
98.99
83.27
67.35
53.19
42.72
37.43
38.09
44.41
54.85
66.75
76.96
82.61
81.87
74.37
61.01
43.51
23.74
3.26
-16.74
-35.43
-52.09
-66.17
-77.30
-85.36
-90.61
-93.46
-94.47
-94.16
-93.05
-91.67
-90.61
-90.49
-91.87
-95.10
-100.20
-106.85
-114.37
-121.99
-129.11
-135.63
-142.02
-149.27
-158.48
-170.40
-184.99
-201.29
-217.54
-231.61
-241.61
-246.33
-245.54
-240.08
-231.47
-221.52
-211.70
-202.67
-194.13
-184.99
-174.08
-160.72
-145.19
-128.51
-111.98
-96.41
-81.73
-67.08
-51.36
-34.09
-15.80
1.93
17.10
28.04
34.00
35.32
33.17
28.97
23.88
18.53
13.03
7.23
1.10
-5.16
-11.17
-16.58
-21.40
-25.99
-30.95
-36.75
-43.37
-50.05
-55.39
-57.68
-55.43
-47.85
-35.15
-18.44
0.58
20.19
39.05
56.35
71.78
85.20
96.35
104.85
110.30
112.57
112.03
109.58
106.45
103.89
102.82
103.58
105.98
109.36
112.93
116.02
118.25
119.50
119.84
119.25
117.59
114.56
109.98
103.92
96.81
89.43
82.60
76.98
72.80
69.89
67.75
65.71
63.16
59.61
54.81
48.94
42.74
37.56
35.22
37.51
45.59
59.58
78.40
100.29
123.40
146.34
168.34
188.87
207.22
222.10
231.93
235.21
231.21
220.22
203.63
183.51
162.18
141.82
124.16
110.36
100.80
95.01
91.77
89.41
86.33
81.52
74.68
66.24
56.97
47.63
38.74
30.58
23.30
17.06
11.97
8.10
5.35
3.46
2.09
0.83
-0.76
-3.16
-6.89
-12.43
-19.88
-28.77
-37.93
-45.69
-50.23
-50.14
-44.96
-35.29
-22.75
-9.54
2.22
10.86
15.46
15.91
12.59
6.18
-2.50
-12.56
-23.10
-33.24
-42.23
-49.57
-55.03
-58.64
-60.59
-61.15
-60.68
-59.53
-58.03
-56.43
-54.84
-53.27
-51.66
-50.00
-48.41
-47.13
-46.44
-46.54
-47.52
-49.26
-51.45
-53.68
-55.60
-57.10
-58.52
-60.66
-64.61
-71.49
-81.97
-95.98
-112.40
-129.24
-143.83
-153.36
-155.51
-149.07
-134.28
-112.90
-87.81
-62.27
-39.22
-20.73
-7.78
-0.47
1.72
-0.37
-5.74
-13.32
-22.04
-30.87
-38.94
-45.71
-50.91
-54.57
-56.96
-58.52
-59.76
-61.19
-63.03
-65.11
-66.75
-66.96
-64.83
-59.87
-52.28
-42.82
-32.55
-22.36
-12.72
-3.69
4.81
12.66
19.32
23.92
25.51
23.41
17.65
9.02
-1.01
-10.54
-17.65
-20.75
-18.93
-12.00
-0.49
14.59
31.91
50.13
67.97
84.42
98.75
110.52
119.55
125.88
129.70
131.30
130.99
129.16
126.32
123.12
120.27
118.40
117.93
118.86
120.76
122.93
124.52
124.72
122.86
118.46
111.24
101.21
88.60
73.92
57.90
41.34
25.06
9.86
-3.62
-14.89
-23.79
-30.57
-35.85
-40.50
-45.40
-51.22
-58.23
-66.21
-74.44
-81.83
-87.07
-88.86
-86.24
-78.86
-67.21
-52.59
-36.91
-22.29
-10.60
-3.22
-0.79
-3.33
-10.27
-20.71
-33.56
-47.64
-61.75
-74.72
-85.52
-93.41
-98.04
-99.58
-98.51
-95.44
-90.82
-84.83
-77.43
-68.55
-58.32
-47.18
-35.84
-25.12
-15.71
-8.09
-2.44
1.28
3.22
3.57
2.52
0.27
-3.02
-7.13
-11.87
-17.12
-22.91
-29.47
-37.13
-46.08
-56.13
-66.45
-75.64
-82.08
-84.32
-81.64
-74.17
-62.82
-48.89
-33.73
-18.41
-3.75
9.65
21.18
30.29
36.63
40.11
41.07
40.18
38.33
36.40
35.09
34.87
35.85
37.87
40.56
43.52
46.41
49.17
51.85
54.58
57.39
60.03
62.12
63.17
62.89
61.22
58.40
54.79
50.73
46.47
42.18
38.09
34.48
31.69
29.94
29.12
28.78
28.17
26.57
23.67
19.79
15.92
13.48
13.85
18.00
26.13
37.63
51.38
65.93
80.01
92.60
103.04
110.98
116.24
118.92
119.32
117.99
115.72
113.32
111.47
110.53
110.46
110.82
110.91
109.95
107.32
102.71
96.25
88.54
80.42
72.85
66.46
61.47
57.46
53.63
49.05
43.01
35.30
26.13
16.13
5.94
-3.84
-12.87
-20.97
-28.09
-34.39
-40.17
-45.89
-52.01
-58.69
-65.52
-71.52
-75.47
-76.36
-73.96
-68.95
-62.74
-56.99
-53.09
-51.73
-52.97
-56.43
-61.65
-68.30
-76.24
-85.32
-95.30
-105.74
-116.03
-125.55
-133.81
-140.45
-145.16
-147.51
-146.86
-142.45
-133.65
-120.42
-103.45
-84.24
-64.73
-46.82
-31.97
-20.87
-13.52
-9.39
-7.67
-7.49
-8.17
-9.22
-10.52
-12.19
-14.55
-17.92
-22.44
-27.87
-33.54
-38.45
-41.36
-41.10
-36.81
-28.17
-15.60
-0.18
16.49
32.75
47.18
58.88
67.56
73.31
76.54
77.66
77.08
75.21
72.58
69.83
67.72
66.89
67.71
70.15
73.76
77.85
81.70
84.72
86.49
86.78
85.39
82.18
77.08
70.22
61.97
52.91
43.61
34.45
25.53
16.76
8.02
-0.73
-9.35
-17.76
-26.05
-34.60
-43.83
-53.92
-64.45
-74.32
-82.06
-86.26
-86.07
-81.55
-73.53
-63.37
-52.47
-42.02
-32.81
-25.30
-19.68
-15.96
-13.95
-13.35
-13.71
-14.62
-15.65
-16.45
-16.61
-15.75
-13.51
-9.67
-4.34
2.10
8.99
15.62
21.40
25.92
29.02
30.78
31.43
31.30
30.73
29.89
28.83
27.44
25.68
23.64
21.56
19.80
18.55
17.76
17.05
15.89
13.83
10.72
6.82
2.80
-0.44
-1.96
-0.93
3.17
10.50
20.74
33.04
46.09
58.28
68.02
74.14
76.20
74.55
70.10
63.91
56.82
49.27
41.50
33.77
26.59
20.61
16.38
14.00
13.04
12.69
12.15
10.92
9.02
6.82
4.83
3.39
2.53
1.94
1.14
-0.27
-2.48
-5.36
-8.50
-11.46
-13.99
-16.23
-18.60
-21.69
-25.83
-30.99
-36.73
-42.51
-47.89
-52.61
-56.55
-59.34
-60.23
-58.17
-52.13
-41.60
-26.95
-9.40
9.35
27.50
43.60
56.63
65.95
71.12
71.92
68.49
61.37
51.60
40.52
29.52
19.76
11.95
6.29
2.39
-0.53
-3.52
-7.49
-12.95
-19.79
-27.38
-34.85
-41.49
-46.97
-51.38
-55.05
-58.35
-61.56
-64.87
-68.38
-72.19
-76.26
-80.48
-84.51
-87.98
-90.56
-92.15
-92.95
-93.38
-93.97
-95.20
-97.18
-99.58
-101.52
-101.78
-99.14
-92.80
-82.65
-69.42
-54.43
-39.23
-25.18
-13.19
-3.61
3.63
8.77
12.08
13.82
14.26
13.77
12.81
11.89
11.46
11.87
13.28
15.69
18.94
22.74
26.72
30.46
33.56
35.73
36.79
36.71
35.60
33.63
31.03
28.06
24.88
21.64
18.34
14.97
11.52
8.14
5.01
2.31
0.03
-2.08
-4.44
-7.54
-11.56
-16.39
-21.48
-26.04
-29.18
-30.12
-28.33
-23.59
-16.11
-6.42
4.64
16.05
26.83
36.09
43.28
48.09
50.55
50.91
49.69
47.51
45.06
42.97
41.71
41.59
42.70
44.97
48.08
51.54
54.69
56.78
57.20
55.56
51.85
46.33
39.53
32.01
24.32
16.88
9.95
3.73
-1.74
-6.42
-10.29
-13.27
-15.31
-16.43
-16.86
-17.14
-17.99
-20.16
-24.07
-29.63
-36.17
-42.60
-47.69
-50.31
-49.71
-45.54
-37.94
-27.50
-15.16
-2.07
10.64
22.04
31.60
39.21
45.04
49.38
52.48
54.47
55.36
55.19
54.08
52.32
50.40
48.89
48.29
48.84
50.35
52.13
53.30
53.06
51.03
47.34
42.57
37.40
32.33
27.55
22.91
18.21
13.28
8.17
3.13
-1.47
-5.16
-7.49
-8.09
-6.91
-4.44
-1.86
-0.87
-3.23
-10.34
-22.69
-39.79
-60.21
-81.87
-102.32
-119.17
-130.41
-134.86
-132.47
-124.38
-112.64
-99.49
-86.85
-75.73
-66.31
-58.19
-50.89
-44.16
-37.96
-32.39
-27.48
-23.15
-19.23
-15.54
-11.90
-8.18
-4.30
-0.23
3.99
8.22
12.24
15.79
18.59
20.35
20.83
19.88
17.58
14.25
10.35
6.47
3.04
0.30
-1.82
-3.51
-5.09
-6.76
-8.69
-10.94
-13.56
-16.66
-20.26
-24.34
-28.61
-32.55
-35.37
-36.24
-34.48
-29.80
-22.42
-13.01
-2.62
7.61
16.67
23.81
28.61
31.00
31.19
29.59
26.83
23.62
20.72
18.82
18.38
19.48
21.80
24.75
27.63
29.85
31.08
31.24
30.47
29.05
27.33
25.62
24.13
22.83
21.49
19.72
17.20
13.79
9.71
5.49
1.75
-1.07
-2.87
-3.93
-4.77
-5.94
-7.80
-10.36
-13.23
-15.71
-16.87
-15.80
-11.86
-4.86
4.80
16.23
28.19
39.38
48.75
55.63
59.72
61.00
59.65
55.95
50.37
43.51
36.15
29.07
22.92
18.05
14.49
12.05
10.38
9.23
8.37
7.67
7.00
6.24
5.19
3.65
1.40
-1.67
-5.53
-9.92
-14.42
-18.55
-21.93
-24.45
-26.27
-27.74
-29.35
-31.49
-34.41
-38.11
-42.26
-46.26
-49.22
-50.24
-48.62
-44.16
-37.19
-28.59
-19.44
-10.71
-3.17
2.83
7.12
9.69
10.61
10.03
8.25
5.72
3.03
0.76
-0.64
-0.96
-0.25
1.19
2.95
4.65
5.98
6.85
7.21
7.12
6.59
5.57
3.99
1.82
-0.88
-3.93
-7.09
-10.15
-13.06
-15.96
-19.09
-22.72
-26.97
-31.62
-36.18
-39.85
-41.80
-41.32
-38.12
-32.43
-24.94
-16.67
-8.66
-1.74
3.63
7.33
9.49
10.31
9.90
8.34
5.72
2.29
-1.49
-4.97
-7.47
-8.49
-7.91
-5.98
-3.24
-0.33
2.30
4.35
5.73
6.41
6.30
5.29
3.38
0.76
-2.20
-5.06
-7.51
-9.57
-11.49
-13.68
-16.35
-19.38
-22.21
-24.06
-24.04
-21.52
-16.26
-8.55
0.87
10.95
20.57
28.74
34.81
38.57
40.18
40.06
38.70
36.53
33.87
30.99
28.19
25.79
24.10
23.36
23.61
24.66
26.11
27.48
28.36
28.48
27.78
26.36
24.34
21.85
18.93
15.64
12.04
8.23
4.30
0.27
-3.85
-7.99
-11.86
-14.83
-16.03
-14.67
-10.26
-2.99
6.35
16.63
26.73
35.83
43.59
49.96
55.00
58.73
60.97
61.55
60.46
57.96
54.58
50.99
47.81
45.37
43.74
42.71
41.96
41.10
39.72
37.37
33.58
28.01
20.62
11.77
2.16
-7.43
-16.40
-24.60
-32.26
-39.75
-47.26
-54.51
-60.77
-65.13
-66.79
-65.40
-61.09
-54.38
-46.01
-36.76
-27.43
-18.80
-11.67
-6.69
-4.19
-4.04
-5.65
-8.19
-10.78
-12.81
-13.93
-14.06
-13.32
-11.96
-10.46
-9.44
-9.60
-11.38
-14.79
-19.30
-24.10
-28.44
-32.03
-35.21
-38.78
-43.59
-50.07
-57.96
-66.29
-73.58
-78.29
-79.29
-76.07
-68.80
-58.26
-45.57
-32.01
-18.75
-6.74
3.36
11.19
16.69
20.00
21.46
21.54
20.80
19.82
19.14
19.06
19.65
20.73
21.98
23.13
24.00
24.59
24.92
24.97
24.57
23.46
21.38
18.13
13.60
7.78
0.74
-7.31
-15.93
-24.45
-31.95
-37.50
-40.36
-40.20
-37.23
-32.02
-25.39
-18.13
-10.84
-3.90
2.37
7.64
11.47
13.40
13.20
10.97
7.28
3.01
-0.93
-3.87
-5.59
-6.24
-6.18
-5.72
-5.06
-4.26
-3.41
-2.68
-2.35
-2.75
-4.12
-6.63
-10.32
-15.10
-20.71
-26.55
-31.71
-35.08
-35.72
-33.10
-27.39
-19.37
-10.18
-0.87
7.78
15.33
21.66
26.65
30.15
32.00
32.07
30.47
27.57
24.04
20.60
17.91
16.29
15.67
15.70
15.87
15.79
15.33
14.57
13.61
12.40
10.70
8.12
4.33
-0.80
-7.12
-14.28
-21.73
-28.80
-34.64
-38.36
-39.15
-36.54
-30.63
-22.09
-12.04
-1.71
7.81
15.80
21.89
25.96
28.02
28.15
26.56
23.55
19.65
15.47
11.67
8.73
6.86
6.01
5.89
6.17
6.58
6.95
7.16
7.09
6.58
5.43
3.52
0.89
-2.28
-5.66
-8.91
-11.78
-14.29
-16.65
-19.36
-22.93
-27.66
-33.39
-39.36
-44.29
-46.74
-45.52
-40.09
-30.85
-18.89
-5.73
7.14
18.58
27.93
34.95
39.63
42.06
42.34
40.74
37.71
33.92
30.12
26.90
24.63
23.36
22.95
23.16
23.80
24.71
25.73
26.67
27.31
27.44
26.82
25.27
22.65
18.89
14.09
8.53
2.64
-3.14
-8.50
-13.31
-17.62
-21.65
-25.69
-30.06
-35.08
-40.86
-47.16
-53.31
-58.18
-60.51
-59.33
-54.27
-45.75
-34.83
-22.79
-10.85
0.11
9.53
17.10
22.64
26.10
27.67
27.71
26.77
25.40
24.08
23.12
22.72
23.09
24.45
26.98
30.66
35.26
40.25
45.04
49.05
51.92
53.56
54.12
53.86
53.07
51.92
50.51
48.86
47.06
45.24
43.61
42.27
41.22
40.22
38.87
36.65
33.03
27.60
20.16
10.91
0.52
-9.81
-18.51
-24.05
-25.30
-21.97
-14.61
-4.53
6.72
17.71
27.41
35.30
41.25
45.41
48.03
49.40
49.75
49.39
48.63
47.80
47.22
47.06
47.42
48.14
49.01
49.72
49.98
49.56
48.35
46.37
43.70
40.51
36.92
33.01
28.76
24.09
19.01
13.59
8.10
2.81
-1.99
-6.25
-10.12
-13.86
-17.83
-22.30
-27.48
-33.51
-40.46
-48.15
-56.04
-63.21
-68.51
-70.89
-69.81
-65.50
-58.86
-51.22
-43.83
-37.61
-33.00
-30.07
-28.76
-29.02
-30.90
-34.44
-39.54
-45.90
-52.90
-59.81
-65.91
-70.75
-74.21
-76.47
-77.90
-78.83
-79.45
-79.79
-79.84
-79.64
-79.41
-79.49
-80.28
-82.01
-84.66
-87.86
-91.03
-93.54
-94.95
-95.15
-94.36
-93.03
-91.63
-90.39
-89.21
-87.57
-84.67
-79.65
-71.84
-60.96
-47.21
-31.20
-13.85
3.75
20.34
34.68
45.70
52.80
56.02
56.03
53.86
50.51
46.59
42.29
37.57
32.53
27.61
23.50
20.88
20.12
21.17
23.65
27.07
30.98
34.95
38.54
41.23
42.50
41.97
39.60
35.71
30.93
25.96
21.32
17.27
13.66
10.14
6.17
1.38
-4.31
-10.48
-16.20
-20.23
-21.39
-18.95
-12.85
-3.83
6.87
17.85
27.83
35.98
41.89
45.49
46.81
46.00
43.27
38.99
33.71
28.07
22.68
17.90
13.88
10.55
7.81
5.62
3.98
2.84
1.94
0.84
-0.98
-3.76
-7.37
-11.25
-14.64
-16.95
-18.07
-18.39
-18.62
-19.58
-21.75
-25.17
-29.37
-33.38
-35.98
-35.87
-32.09
-24.24
-12.89
0.62
14.41
26.66
36.21
42.74
46.66
48.68
49.39
49.06
47.72
45.39
42.25
38.63
34.90
31.40
28.34
25.93
24.41
24.03
24.80
26.42
28.24
29.50
29.64
28.57
26.62
24.31
21.99
19.67
16.97
13.36
8.37
1.82
-6.10
-14.89
-23.62
-31.09
-35.81
-36.48
-32.29
-23.38
-11.01
2.80
15.87
26.61
34.34
39.33
42.26
43.73
43.92
42.63
39.65
35.07
29.44
23.49
17.75
12.32
6.83
0.79
-6.11
-13.81
-21.97
-30.20
-38.32
-46.29
-54.07
-61.49
-68.17
-73.83
-78.47
-82.63
-87.09
-92.68
-99.83
-108.25
-116.98
-124.52
-129.19
-129.47
-124.41
-113.85
-98.54
-80.07
-60.58
-42.31
-27.08
-16.08
-9.68
-7.66
-9.38
-14.00
-20.63
-28.40
-36.52
-44.18
-50.71
-55.57
-58.47
-59.42
-58.74
-57.00
-54.93
-53.25
-52.51
-52.97
-54.47
-56.54
-58.55
-59.94
-60.43
-60.09
-59.37
-58.94
-59.46
-61.33
-64.44
-68.02
-70.74
-70.97
-67.25
-58.78
-45.68
-29.05
-10.66
7.46
23.44
35.95
44.23
48.13
47.95
44.32
38.03
29.97
20.99
11.91
3.44
-3.78
-9.23
-12.51
-13.44
-12.05
-8.60
-3.62
2.24
8.22
13.62
17.86
20.63
21.88
21.81
20.72
18.92
16.63
13.93
10.79
7.11
2.67
-2.79
-9.39
-16.95
-24.74
-31.49
-35.67
-35.94
-31.57
-22.75
-10.50
3.65
18.09
31.45
42.86
51.92
58.54
62.86
65.07
65.36
63.96
61.19
57.55
53.66
50.19
47.57
45.92
45.09
44.74
44.65
44.71
45.01
45.53
46.09
46.33
45.76
44.04
41.00
36.81
31.79
26.33
20.76
15.37
10.30
5.58
1.12
-3.36
-8.19
-13.65
-19.74
-26.02
-31.54
-35.07
-35.34
-31.42
-22.99
-10.42
5.28
22.74
40.50
57.38
72.60
85.82
97.07
106.55
114.57
121.39
127.26
132.45
137.24
142.06
147.46
154.04
162.29
172.28
183.41
194.42
203.74
210.02
212.71
212.20
209.44
205.37
200.43
194.54
187.49
179.43
170.95
162.87
155.51
148.37
140.17
129.48
115.43
98.11
78.47
57.75
36.97
16.77
-2.49
-20.24
-35.61
-47.49
-54.91
-57.46
-55.44
-49.76
-41.62
-32.21
-22.58
-13.50
-5.49
1.22
6.66
11.10
14.89
18.38
21.88
25.67
30.01
35.01
40.41
45.44
48.91
49.55
46.64
40.30
31.59
21.98
12.71
4.26
-3.68
-11.85
-20.87
-30.78
-41.06
-50.82
-59.34
-66.29
-71.81
-76.23
-79.84
-82.72
-84.73
-85.85
-86.32
-86.81
-88.12
-90.98
-95.61
-101.65
-108.26
-114.37
-119.04
-121.51
-121.36
-118.37
-112.64
-104.63
-95.16
-85.42
-76.63
-69.80
-65.33
-63.11
-62.60
-63.30
-64.92
-67.50
-71.15
-75.80
-80.94
-85.71
-89.16
-90.62
-89.99
-87.73
-84.54
-81.15
-77.92
-74.94
-72.10
-69.35
-66.77
-64.63
-63.21
-62.69
-63.13
-64.37
-66.21
-68.34
-70.46
-72.32
-73.84
-75.18
-76.72
-79.01
-82.52
-87.44
-93.43
-99.54
-104.38
-106.40
-104.25
-97.19
-85.33
-69.63
-51.71
-33.44
-16.51
-2.10
9.24
17.50
22.93
25.91
26.83
26.15
24.38
22.21
20.30
19.17
19.01
19.66
20.64
21.41
21.53
20.78
19.28
17.33
15.33
13.48
11.76
9.86
7.42
4.21
0.25
-4.16
-8.68
-13.09
-17.41
-21.92
-27.07
-33.34
-41.11
-50.48
-61.06
-71.86
-81.18
-86.97
-87.31
-81.04
-68.26
-50.27
-29.29
-7.78
12.17
29.12
42.39
51.84
57.67
60.24
60.04
57.62
53.56
48.52
43.09
37.89
33.49
30.41
28.95
29.13
30.60
32.70
34.68
35.88
35.95
34.85
32.70
29.68
25.82
21.10
15.45
8.96
1.85
-5.48
-12.57
-19.16
-25.15
-30.74
-36.22
-41.90
-47.96
-54.38
-60.99
-67.36
-72.87
-76.56
-77.22
-73.55
-64.60
-50.13
-30.98
-9.00
13.37
33.70
50.21
62.06
69.30
72.54
72.65
70.39
66.45
61.46
56.02
50.73
46.09
42.44
39.92
38.57
38.36
39.12
40.62
42.35
43.73
44.16
43.27
41.03
37.63
33.37
28.42
22.86
16.68
9.98
3.03
-3.74
-9.91
-15.24
-19.74
-23.73
-27.69
-32.19
-37.65
-44.26
-51.75
-59.35
-65.86
-69.79
-69.79
-64.93
-55.17
-41.27
-24.76
-7.52
8.64
22.37
32.94
40.20
44.35
45.73
44.68
41.50
36.64
30.72
24.60
19.24
15.42
13.61
13.74
15.34
17.72
20.13
22.11
23.31
23.58
22.77
20.78
17.60
13.32
8.22
2.59
-3.22
-9.00
-14.64
-20.06
-25.18
-29.80
-33.63
-36.41
-38.10
-38.98
-39.73
-41.27
-44.39
-49.39
-55.70
-61.94
-66.10
-66.30
-61.26
-50.81
-35.89
-18.25
0.08
17.25
31.86
43.16
50.89
55.22
56.62
55.75
53.36
50.18
46.84
43.73
41.09
39.01
37.59
36.93
37.12
38.11
39.66
41.31
42.50
42.76
41.83
39.65
36.36
32.13
27.14
21.51
15.45
9.17
3.02
-2.68
-7.70
-11.92
-15.42
-18.35
-20.96
-23.57
-26.63
-30.60
-35.88
-42.54
-50.04
-57.26
-62.59
-64.39
-61.52
-53.70
-41.66
-26.85
-11.06
4.10
17.42
28.27
36.45
42.00
45.07
45.83
44.52
41.53
37.48
33.20
29.60
27.42
27.05
28.38
30.88
33.83
36.50
38.38
39.20
38.90
37.51
35.10
31.79
27.72
23.15
18.35
13.60
9.06
4.74
0.59
-3.44
-7.34
-11.00
-14.29
-17.14
-19.66
-22.18
-25.17
-29.02
-33.84
-39.12
-43.77
-46.32
-45.35
-40.03
-30.42
-17.48
-2.80
11.91
25.29
36.50
45.26
51.68
55.96
58.42
59.26
58.76
57.25
55.05
52.46
49.66
46.76
43.86
41.15
38.81
37.04
35.88
35.08
34.22
32.80
30.50
27.25
23.27
18.86
14.31
9.76
5.30
0.95
-3.24
-7.15
-10.69
-13.77
-16.35
-18.51
-20.43
-22.42
-24.84
-28.05
-32.20
-37.18
-42.40
-46.92
-49.50
-49.02
-44.80
-36.87
-26.08
-13.86
-1.79
8.87
17.46
23.88
28.38
31.21
32.57
32.54
31.30
29.27
27.00
25.08
23.83
23.35
23.49
24.07
24.96
26.11
27.49
28.96
30.32
31.35
31.81
31.57
30.51
28.59
25.78
22.21
18.11
13.89
9.89
6.40
3.45
0.85
-1.77
-4.80
-8.52
-13.11
-18.52
-24.51
-30.60
-36.04
-39.89
-41.20
-39.29
-33.99
-25.77
-15.64
-4.88
5.32
14.14
21.16
26.31
29.65
31.22
31.07
29.40
26.65
23.52
20.77
18.97
18.31
18.58
19.35
20.22
21.01
21.72
22.40
22.94
23.06
22.41
20.74
18.10
14.75
11.14
7.60
4.31
1.25
-1.75
-4.91
-8.46
-12.61
-17.48
-22.94
-28.57
-33.58
-36.97
-37.79
-35.47
-29.98
-21.93
-12.37
-2.51
6.62
14.29
20.19
24.27
26.64
27.48
26.98
25.37
22.96
20.13
17.32
14.94
13.30
12.58
12.80
13.85
15.48
17.31
18.92
19.84
19.77
18.58
16.35
13.31
9.80
6.15
2.61
-0.63
-3.62
-6.53
-9.71
-13.47
-17.97
-23.03
-28.01
-32.00
-33.95
-33.09
-29.17
-22.55
-14.18
-5.22
3.22
10.40
16.02
20.12
22.85
24.33
24.59
23.61
21.56
18.79
15.86
13.35
11.68
11.01
11.20
11.93
12.77
13.42
13.76
13.80
13.64
13.33
12.77
11.73
9.95
7.29
3.88
0.04
-3.75
-7.09
-9.80
-12.00
-14.06
-16.43
-19.52
-23.46
-28.09
-32.96
-37.37
-40.55
-41.74
-40.42
-36.37
-29.78
-21.30
-11.90
-2.69
5.38
11.66
16.00
18.53
19.64
19.66
18.88
17.45
15.57
13.47
11.47
9.93
9.11
9.19
10.14
11.81
13.88
15.93
17.56
18.41
18.34
17.40
15.85
13.97
11.96
9.87
7.63
5.12
2.29
-0.78
-3.93
-6.95
-9.67
-12.01
-13.99
-15.79
-17.67
-19.94
-22.78
-26.16
-29.76
-33.05
-35.39
-36.12
-34.75
-31.04
-25.14
-17.57
-9.12
-0.73
6.77
12.80
17.16
19.86
21.04
20.85
19.45
17.12
14.28
11.53
9.48
8.58
8.95
10.40
12.48
14.63
16.37
17.43
17.75
17.49
16.87
16.10
15.25
14.21
12.77
10.75
8.11
4.99
1.68
-1.50
-4.33
-6.76
-8.91
-11.07
-13.53
-16.54
-20.15
-24.13
-28.01
-31.12
-32.79
-32.48
-29.96
-25.30
-18.91
-11.44
-3.64
3.67
9.79
14.20
16.74
17.58
17.12
15.86
14.28
12.64
11.11
9.78
8.69
8.01
7.84
8.30
9.34
10.79
12.31
13.51
14.07
13.80
12.79
11.25
9.47
7.64
5.79
3.80
1.51
-1.11
-3.98
-6.89
-9.59
-11.94
-13.90
-15.58
-17.19
-19.02
-21.29
-24.15
-27.54
-31.17
-34.57
-37.12
-38.19
-37.27
-34.12
-28.82
-21.85
-13.93
-5.91
1.43
7.55
12.22
15.49
17.55
18.60
18.78
18.24
17.16
15.78
14.41
13.33
12.70
12.57
12.92
13.66
14.70
15.90
17.10
18.09
18.65
18.66
18.10
17.02
15.52
13.65
11.43
8.86
6.06
3.23
0.66
-1.46
-3.14
-4.63
-6.25
-8.23
-10.55
-12.94
-15.06
-16.71
-18.03
-19.47
-21.53
-24.55
-28.48
-32.86
-36.92
-39.82
-40.86
-39.60
-35.97
-30.21
-22.89
-14.74
-6.59
0.83
6.94
11.43
14.22
15.49
15.55
14.82
13.66
12.38
11.18
10.16
9.41
9.06
9.24
10.02
11.37
13.10
14.88
16.40
17.43
17.91
17.91
17.53
16.88
15.93
14.60
12.85
10.72
8.38
6.09
4.06
2.43
1.10
-0.16
-1.63
-3.55
-5.94
-8.68
-11.51
-14.16
-16.48
-18.47
-20.27
-22.16
-24.41
-27.26
-30.73
-34.55
-38.13
-40.62
-41.18
-39.23
-34.69
-28.01
-20.06
-11.79
-4.03
2.65
8.00
11.96
14.54
15.80
15.84
14.85
13.17
11.19
9.36
8.03
7.42
7.59
8.43
9.74
11.31
12.94
14.51
15.97
17.30
18.35
18.91
18.68
17.48
15.33
12.52
9.53
6.78
4.49
2.54
0.66
-1.41
-3.77
-6.31
-8.75
-10.87
-12.59
-13.98
-15.22
-16.54
-18.19
-20.39
-23.26
-26.75
-30.48
-33.83
-35.92
-36.02
-33.65
-28.86
-22.16
-14.38
-6.42
0.97
7.23
12.06
15.35
17.13
17.52
16.72
15.06
12.92
10.73
8.88
7.63
7.09
7.20
7.81
8.74
9.92
11.34
12.97
14.73
16.35
17.47
17.71
16.88
15.03
12.54
9.93
7.70
6.10
5.06
4.20
3.05
1.27
-1.20
-4.08
-6.97
-9.49
-11.49
-13.14
-14.73
-16.63
-19.08
-22.17
-25.79
-29.66
-33.29
-35.98
-36.99
-35.68
-31.77
-25.45
-17.47
-8.87
-0.73
6.05
11.06
14.24
15.92
16.49
16.31
15.64
14.63
13.43
12.22
11.27
10.76
10.82
11.40
12.32
13.40
14.49
15.56
16.59
17.54
18.25
18.52
18.15
17.05
15.30
13.10
10.73
8.38
6.14
3.98
1.80
-0.46
-2.82
-5.19
-7.49
-9.64
-11.62
-13.45
-15.19
-16.95
-18.88
-21.17
-24.00
-27.38
-31.10
-34.58
-37.10
-37.86
-36.35
-32.42
-26.41
-18.99
-10.99
-3.20
3.77
9.52
13.87
16.73
18.16
18.29
17.41
15.87
14.10
12.49
11.38
10.93
11.19
12.05
13.31
14.74
16.16
17.41
18.43
19.14
19.47
19.32
18.62
17.33
15.52
13.34
10.94
8.45
5.89
3.27
0.57
-2.16
-4.80
-7.22
-9.33
-11.08
-12.46
-13.57
-14.55
-15.66
-17.19
-19.46
-22.58
-26.43
-30.53
-34.06
-36.16
-36.09
-33.53
-28.68
-22.14
-14.74
-7.31
-0.46
5.42
10.17
13.71
15.99
17.05
17.01
16.09
14.61
12.87
11.14
9.60
8.44
7.85
7.95
8.80
10.25
11.99
13.61
14.78
15.33
15.33
14.90
14.13
12.98
11.31
8.95
5.89
2.38
-1.19
-4.41
-7.02
-9.02
-10.66
-12.27
-14.13
-16.35
-18.93
-21.79
-24.89
-28.09
-31.16
-33.63
-34.86
-34.18
-31.17
-25.88
-18.87
-11.10
-3.54
3.04
8.29
12.16
14.84
16.52
17.24
17.03
15.91
14.09
11.92
9.86
8.32
7.53
7.49
8.05
9.00
10.16
11.42
12.68
13.84
14.71
15.07
14.74
13.64
11.84
9.52
6.89
4.16
1.44
-1.20
-3.78
-6.31
-8.77
-11.07
-13.16
-14.98
-16.56
-18.08
-19.82
-22.12
-25.17
-28.92
-32.95
-36.50
-38.65
-38.62
-36.02
-30.97
-24.14
-16.42
-8.72
-1.73
4.18
8.88
12.37
14.71
16.03
16.42
16.06
15.15
13.87
12.49
11.21
10.30
9.93
10.25
11.22
12.70
14.47
16.27
17.84
18.89
19.21
18.66
17.28
15.26
12.88
10.44
8.14
6.05
4.08
2.14
0.11
-2.04
-4.34
-6.76
-9.26
-11.73
-14.04
-16.06
-17.72
-19.09
-20.39
-21.91
-23.92
-26.43
-29.16
-31.46
-32.51
-31.57
-28.20
-22.39
-14.60
-5.58
3.83
12.80
20.74
27.31
32.43
36.25
39.02
40.98
42.24
42.82
42.76
42.23
41.55
41.22
41.58
42.76
44.54
46.53
48.31
49.65
50.60
51.33
52.09
52.97
53.80
54.31
54.14
53.02
50.86
47.81
44.17
40.38
36.93
34.28
32.80
32.61
33.57
35.23
36.93
37.97
37.84
36.41
33.87
30.75
27.76
25.70
25.32
27.24
31.69
38.41
46.69
55.48
63.73
70.65
75.80
79.01
80.18
79.27
76.26
71.38
65.17
58.41
51.92
46.29
41.76
38.15
35.11
32.20
29.11
25.66
21.77
17.36
12.32
6.48
-0.33
-8.14
-16.77
-25.82
-34.85
-43.56
-51.92
-60.20
-68.69
-77.50
-86.37
-94.75
-102.02
-107.76
-111.85
-114.43
-115.83
-116.37
-116.45
-116.41
-116.56
-116.99
-117.40
-117.05
-114.93
-110.15
-102.34
-91.87
-79.73
-67.13
-55.09
-44.11
-34.21
-25.14
-16.72
-9.03
-2.34
3.05
7.06
9.93
12.10
14.10
16.29
18.86
21.77
24.88
27.96
30.78
33.11
34.77
35.66
35.82
35.41
34.68
33.85
33.04
32.31
31.62
30.95
30.24
29.45
28.45
27.08
25.15
22.49
19.10
15.13
10.97
7.07
3.88
1.69
0.47
-0.13
-0.81
-2.38
-5.50
-10.43
-16.76
-23.46
-29.02
-31.93
-31.10
-26.26
-18.06
-7.84
2.77
12.37
20.08
25.66
29.28
31.29
31.94
31.29
29.35
26.19
22.10
17.54
13.08
9.19
6.15
3.94
2.34
1.02
-0.33
-1.86
-3.59
-5.43
-7.24
-8.90
-10.43
-11.93
-13.55
-15.44
-17.55
-19.67
-21.47
-22.64
-23.07
-22.90
-22.52
-22.36
-22.80
-24.02
-25.99
-28.60
-31.58
-34.66
-37.53
-39.96
-41.89
-43.54
-45.33
-47.79
-51.32
-55.93
-61.18
-66.15
-69.69
-70.67
-68.32
-62.49
-53.70
-43.03
-31.83
-21.39
-12.61
-5.89
-1.16
1.92
3.79
4.82
5.27
5.44
5.59
6.10
7.36
9.66
13.21
17.95
23.68
30.01
36.54
42.87
48.68
53.72
57.79
60.77
62.63
63.56
63.86
63.98
64.36
65.33
66.97
69.12
71.46
73.64
75.38
76.48
76.91
76.74
76.13
75.19
73.85
71.81
68.60
63.75
57.01
48.52
38.67
28.08
17.36
7.08
-2.11
-9.51
-14.40
-16.28
-15.10
-11.43
-6.34
-1.04
3.39
6.34
7.60
7.25
5.43
2.28
-2.19
-8.03
-15.18
-23.49
-32.47
-41.36
-49.26
-55.36
-59.25
-61.01
-61.22
-60.58
-59.68
-58.68
-57.49
-55.96
-54.19
-52.72
-52.28
-53.50
-56.58
-61.24
-66.83
-72.73
-78.57
-84.25
-89.81
-95.14
-99.89
-103.51
-105.56
-105.93
-105.03
-103.66
-102.71
-102.84
-104.23
-106.48
-108.64
-109.54
-107.98
-103.07
-94.44
-82.32
-67.58
-51.44
-35.31
-20.39
-7.57
2.62
9.99
14.53
16.51
16.48
15.34
14.34
14.79
17.66
23.20
30.80
39.06
46.31
51.05
52.40
50.23
45.01
37.61
28.94
19.79
10.70
2.02
-6.16
-13.84
-20.97
-27.43
-32.86
-36.91
-39.37
-40.38
-40.53
-40.61
-41.33
-42.94
-45.19
-47.45
-49.07
-49.72
-49.55
-49.04
-48.76
-48.91
-49.15
-48.56
-45.91
-40.14
-30.85
-18.58
-4.79
8.68
20.20
28.94
35.01
39.13
42.15
44.52
46.30
47.28
47.27
46.26
44.34
41.72
38.76
36.23
35.39
37.83
44.73
56.14
70.47
84.76
95.55
100.16
97.52
88.31
74.49
58.35
41.83
26.21
12.10
-0.21
-10.71
-19.61
-27.54
-35.54
-44.95
-56.90
-71.87
-89.29
-107.41
-123.81
-136.08
-142.70
-143.50
-139.77
-133.71
-127.64
-123.24
-121.01
-120.27
-119.37
-116.22
-108.80
-95.75
-76.68
-52.31
-24.38
4.75
32.63
57.26
77.31
92.11
101.42
105.19
103.55
96.83
85.89
72.17
57.66
44.47
34.33
28.17
25.92
26.67
29.05
31.79
34.04
35.58
36.61
37.54
38.74
40.38
42.49
45.02
47.99
51.32
54.77
57.81
59.77
60.08
58.49
55.37
51.50
47.88
45.12
43.21
41.45
38.80
34.36
27.79
19.51
10.43
1.56
-6.47
-13.53
-19.83
-25.51
-30.27
-33.26
-33.32
-29.51
-21.52
-10.02
3.48
17.05
28.87
37.71
43.06
45.18
44.69
42.40
39.05
35.15
31.08
27.02
23.07
19.32
15.95
13.33
12.02
12.65
15.70
21.23
28.73
37.17
45.31
52.04
56.72
59.27
60.07
59.72
58.83
57.82
56.98
56.46
56.29
56.37
56.25
55.20
52.31
46.80
38.23
26.66
12.52
-3.65
-21.42
-40.62
-61.25
-83.29
-106.43
-129.85
-152.22
-171.86
-187.16
-196.99
-201.00
-199.69
-194.11
-185.34
-174.16
-160.97
-146.01
-129.72
-112.89
-96.52
-81.41
-67.85
-55.59
-43.98
-32.47
-20.82
-9.17
2.21
13.17
23.78
34.29
44.87
55.44
65.58
74.68
82.11
87.35
90.23
90.87
89.67
87.17
83.81
79.73
74.63
67.89
58.88
47.39
34.02
20.22
7.85
-1.45
-6.90
-8.91
-8.80
-8.26
-8.58
-10.29
-12.93
-15.46
-16.54
-14.90
-9.42
0.72
16.04
36.46
60.95
87.41
112.70
133.35
146.45
150.59
146.21
135.30
120.53
104.20
87.66
71.36
55.55
40.85
28.52
20.01
16.20
16.88
20.63
25.53
29.90
32.89
34.43
34.81
34.12
32.07
28.24
22.59
15.84
9.40
4.77
2.91
3.72
6.20
8.84
10.34
9.99
7.64
3.40
-2.77
-11.19
-22.27
-36.13
-52.39
-70.21
-88.57
-106.57
-123.46
-138.43
-150.33
-157.74
-159.24
-154.05
-142.51
-126.21
-107.63
-89.39
-73.62
-61.45
-53.04
-47.90
-45.34
-44.78
-45.80
-48.11
-51.18
-54.19
-56.01
-55.51
-51.91
-45.15
-35.90
-25.37
-14.89
-5.46
2.43
8.83
14.02
18.26
21.54
23.71
24.50
23.83
21.85
18.94
15.49
11.76
7.87
3.85
-0.25
-4.24
-7.89
-10.98
-13.48
-15.58
-17.62
-20.03
-23.12
-27.09
-31.98
-37.75
-44.21
-51.07
-57.69
-63.04
-65.70
-64.15
-57.18
-44.25
-25.80
-3.10
22.01
47.55
71.62
92.52
108.75
119.05
122.55
118.98
108.89
93.65
75.27
56.08
38.27
23.56
12.91
6.47
3.73
3.81
5.84
9.18
13.45
18.38
23.55
28.25
31.70
33.21
32.53
29.91
25.97
21.47
17.07
13.22
10.14
7.85
6.27
5.16
4.27
3.26
1.89
-0.01
-2.56
-5.82
-9.92
-14.97
-20.94
-27.53
-34.06
-39.44
-42.40
-41.76
-36.77
-27.39
-14.15
1.84
19.41
37.37
54.72
70.52
83.78
93.46
98.70
99.11
95.08
87.80
79.03
70.62
64.12
60.47
60.05
62.72
68.01
75.09
82.89
90.03
95.15
97.15
95.49
90.21
81.64
70.06
55.61
38.37
18.72
-2.43
-23.79
-44.19
-63.10
-80.72
-97.69
-114.37
-130.30
-144.19
-154.51
-160.26
-161.66
-160.15
-157.93
-157.12
-159.06
-163.92
-170.66
-177.42
-181.95
-182.17
-176.56
-164.49
-146.21
-122.82
-95.95
-67.51
-39.48
-13.61
8.68
26.55
39.67
48.30
53.00
54.57
53.86
51.78
49.30
47.43
47.06
48.72
52.47
57.91
64.28
70.84
77.01
82.48
87.07
90.65
92.99
93.92
93.32
91.36
88.56
85.58
83.08
81.39
80.47
79.91
79.24
78.07
76.20
73.56
70.12
65.80
60.56
54.53
47.92
40.81
32.95
23.70
12.39
-1.16
-16.11
-30.51
-41.86
-47.81
-47.01
-39.41
-26.22
-9.42
8.73
26.19
41.35
53.09
60.72
63.89
62.51
56.78
47.27
35.05
21.75
9.31
-0.37
-5.93
-6.92
-3.77
2.35
9.98
17.72
24.52
29.74
33.12
34.73
34.74
33.37
30.83
27.40
23.53
19.83
16.91
15.05
13.92
12.53
9.63
4.29
-3.52
-12.76
-21.73
-28.93
-33.78
-36.91
-39.82
-44.19
-51.22
-61.35
-74.28
-89.35
-105.51
-121.38
-135.15
-144.70
-148.22
-144.70
-134.58
-119.61
-102.33
-85.21
-69.95
-57.26
-47.10
-39.21
-33.53
-30.18
-29.13
-29.87
-31.19
-31.46
-29.17
-23.44
-14.28
-2.40
11.09
25.08
38.64
50.95
61.28
68.90
73.41
74.76
73.42
70.21
66.12
62.05
58.66
56.30
55.03
54.66
54.76
54.80
54.31
52.98
50.84
48.14
45.40
43.10
41.50
40.41
39.21
37.05
33.22
27.63
20.96
14.61
10.27
9.32
12.47
19.59
29.94
42.43
55.99
69.62
82.34
93.15
101.14
105.69
106.72
104.71
100.49
94.91
88.53
81.60
74.21
66.54
59.06
52.30
46.68
42.19
38.48
34.96
31.20
27.03
22.55
17.93
13.16
8.10
2.52
-3.64
-10.17
-16.57
-22.27
-26.88
-30.37
-33.10
-35.59
-38.30
-41.42
-44.80
-48.04
-50.70
-52.51
-53.47
-53.88
-54.30
-55.36
-57.60
-61.25
-66.11
-71.36
-75.68
-77.40
-74.92
-67.22
-54.27
-37.24
-18.31
-0.10
15.10
25.93
32.28
35.11
35.80
35.56
34.95
33.91
32.00
28.88
24.51
19.23
13.49
7.72
2.20
-2.97
-7.74
-12.11
-16.06
-19.77
-23.58
-28.15
-34.29
-42.67
-53.61
-66.74
-81.06
-95.11
-107.51
-117.40
-124.70
-130.07
-134.49
-138.75
-143.09
-147.16
-150.21
-151.57
-150.90
-148.36
-144.58
-140.51
-137.13
-135.02
-134.05
-133.11
-130.28
-123.38
-110.68
-91.71
-67.47
-40.21
-12.68
12.68
34.21
51.22
63.69
71.98
76.58
77.98
76.72
73.45
68.94
64.00
59.45
56.02
54.28
54.50
56.59
60.15
64.48
68.85
72.56
75.16
76.39
76.24
74.84
72.47
69.46
66.18
62.87
59.54
55.94
51.65
46.37
40.08
33.15
26.21
19.87
14.42
9.70
5.22
0.30
-5.67
-12.96
-21.40
-30.14
-37.70
-42.17
-41.71
-35.22
-22.79
-5.86
13.21
31.89
48.24
61.30
71.09
78.13
83.04
86.21
87.81
87.98
87.02
85.48
84.01
83.09
82.86
83.02
82.95
82.01
79.86
76.54
72.47
68.16
63.95
59.87
55.68
51.13
46.14
40.92
35.92
31.56
28.08
25.50
23.76
22.88
23.06
24.46
27.04
30.14
32.48
32.32
27.94
18.22
3.01
-16.56
-38.37
-59.71
-77.90
-90.90
-97.71
-98.57
-94.75
-88.10
-80.63
-74.04
-69.49
-67.60
-68.52
-72.03
-77.66
-84.75
-92.57
-100.33
-107.29
-112.63
-115.48
-114.96
-110.44
-101.81
-89.63
-75.15
-59.93
-45.46
-32.78
-22.39
-14.37
-8.50
-4.43
-1.68
0.34
2.23
4.47
7.26
10.47
13.82
17.03
19.97
22.70
25.34
27.79
29.77
30.75
30.29
28.18
24.74
20.73
17.39
16.22
18.66
25.87
38.41
56.04
77.68
101.66
125.96
148.56
167.71
181.88
189.94
191.20
185.68
174.20
158.37
140.22
121.69
104.17
88.21
73.73
60.36
47.77
35.92
24.94
14.96
5.90
-2.54
-10.78
-19.10
-27.56
-35.93
-43.80
-50.73
-56.39
-60.65
-63.59
-65.47
-66.61
-67.37
-68.01
-68.56
-68.87
-68.60
-67.50
-65.66
-63.74
-62.86
-64.32
-69.04
-77.17
-87.92
-99.66
-110.40
-118.29
-122.07
-121.38
-116.72
-109.34
-100.77
-92.42
-85.18
-79.32
-74.56
-70.44
-66.62
-63.04
-59.83
-57.10
-54.69
-52.16
-48.93
-44.56
-38.84
-31.92
-24.04
-15.54
-6.66
2.25
10.70
18.06
23.67
27.00
27.87
26.53
23.53
19.69
15.80
12.49
10.12
8.71
8.07
7.95
8.27
9.16
10.85
13.35
16.16
18.23
18.26
15.44
9.87
2.84
-3.51
-6.89
-5.36
2.14
15.80
34.88
57.89
82.78
107.30
129.47
148.02
162.49
172.96
179.66
182.54
181.27
175.65
165.99
153.27
138.86
124.03
109.52
95.52
81.90
68.64
55.94
44.18
33.50
23.55
13.55
2.57
-9.96
-23.88
-38.28
-51.75
-62.92
-70.90
-75.64
-77.81
-78.55
-79.04
-80.17
-82.27
-85.09
-88.00
-90.17
-91.00
-90.33
-88.60
-86.67
-85.48
-85.55
-86.77
-88.37
-89.13
-87.79
-83.27
-74.82
-62.07
-45.17
-24.95
-2.98
18.43
36.80
49.98
56.83
57.42
52.82
44.59
34.24
22.92
11.29
-0.22
-11.30
-21.65
-31.06
-39.46
-46.89
-53.45
-59.02
-63.33
-65.99
-66.73
-65.64
-63.29
-60.61
-58.57
-57.92
-58.80
-60.83
-63.20
-65.09
-65.94
-65.62
-64.28
-62.21
-59.62
-56.59
-53.17
-49.49
-45.81
-42.44
-39.75
-38.02
-37.43
-38.02
-39.72
-42.20
-44.89
-46.85
-46.94
-44.03
-37.37
-26.82
-12.97
2.89
19.24
34.58
47.88
58.69
67.12
73.58
78.55
82.30
84.94
86.49
87.16
87.43
88.01
89.61
92.69
97.25
102.84
108.72
114.19
118.71
121.98
123.74
123.59
121.00
115.47
106.80
95.35
82.06
68.15
54.77
42.63
31.88
22.27
13.41
5.02
-2.99
-10.55
-17.58
-24.07
-29.99
-35.33
-40.06
-44.28
-48.34
-52.86
-58.42
-65.07
-71.99
-77.29
-78.54
-73.44
-60.74
-40.70
-15.09
13.34
41.63
67.26
88.70
105.44
117.91
127.05
133.88
139.05
142.42
143.07
139.60
130.75
116.01
96.02
72.30
46.80
21.24
-3.34
-26.47
-47.94
-67.35
-84.04
-97.39
-107.16
-113.95
-118.91
-123.32
-127.83
-132.14
-135.07
-135.27
-131.94
-125.34
-116.75
-107.88
-100.18
-94.22
-89.65
-85.48
-80.67
-74.69
-67.79
-60.99
-55.75
-53.50
-55.10
-60.43
-68.16
-76.03
-81.30
-81.56
-75.46
-63.02
-45.53
-25.10
-3.97
15.98
33.47
47.73
58.36
65.06
67.73
66.54
62.11
55.53
48.26
41.71
36.96
34.44
33.95
34.90
36.55
38.44
40.39
42.48
44.87
47.48
49.98
51.78
52.27
51.04
48.17
44.24
40.16
36.91
35.10
34.69
35.01
35.03
33.85
31.05
26.89
22.06
17.35
13.16
9.31
5.10
-0.39
-7.86
-17.40
-28.29
-39.05
-47.63
-51.92
-50.22
-41.60
-26.31
-5.62
18.28
42.87
65.77
85.21
100.31
110.98
117.73
121.14
121.61
119.21
113.80
105.42
94.52
82.05
69.28
57.49
47.59
39.97
34.54
30.90
28.47
26.65
24.83
22.38
18.79
13.66
6.94
-1.05
-9.66
-18.05
-25.42
-31.22
-35.30
-37.82
-39.13
-39.53
-39.17
-38.08
-36.20
-33.57
-30.39
-27.03
-23.98
-21.81
-21.06
-22.07
-24.85
-28.73
-32.44
-34.23
-32.43
-25.96
-14.77
0.10
16.88
33.52
48.29
59.91
67.62
71.05
70.02
64.66
55.48
43.56
30.40
17.69
6.77
-1.71
-7.89
-12.48
-16.29
-19.87
-23.29
-26.36
-28.85
-30.81
-32.59
-34.65
-37.38
-40.79
-44.59
-48.32
-51.57
-54.09
-55.88
-57.07
-57.84
-58.40
-58.96
-59.72
-60.71
-61.74
-62.34
-61.95
-60.20
-57.24
-54.05
-52.07
-52.90
-57.60
-66.13
-77.19
-88.27
-96.28
-98.17
-91.81
-76.54
-53.54
-25.54
3.81
30.87
52.93
68.65
78.17
82.54
83.29
81.81
79.13
75.90
72.39
68.66
64.60
60.07
55.05
49.73
44.57
40.09
36.74
34.61
33.43
32.61
31.56
29.86
27.32
23.97
19.91
15.30
10.29
5.14
0.14
-4.51
-8.84
-13.07
-17.49
-22.36
-27.60
-32.99
-38.24
-43.20
-47.96
-52.67
-57.38
-61.78
-65.18
-66.66
-65.29
-60.36
-51.53
-38.87
-22.88
-4.41
15.49
35.63
54.96
72.53
87.56
99.28
106.77
109.07
105.42
95.76
80.95
62.85
43.73
25.65
9.94
-3.01
-13.46
-21.84
-28.40
-33.12
-35.85
-36.67
-36.05
-34.76
-33.66
-33.33
-33.95
-35.29
-36.85
-38.18
-39.04
-39.63
-40.36
-41.71
-43.83
-46.44
-48.94
-50.64
-51.17
-50.67
-49.72
-49.09
-49.47
-51.06
-53.38
-55.38
-55.54
-52.41
-45.07
-33.56
-19.01
-3.37
11.16
22.83
30.68
34.74
35.68
34.44
31.88
28.55
24.74
20.55
16.06
11.42
7.01
3.44
1.40
1.43
3.62
7.61
12.55
17.37
20.95
22.45
21.40
17.91
12.68
6.89
1.90
-1.20
-1.95
-0.64
1.85
4.53
6.62
7.84
8.27
8.19
7.79
7.12
6.01
4.22
1.47
-2.61
-8.38
-16.14
-25.92
-37.20
-48.63
-58.14
-63.26
-61.76
-52.55
-36.03
-14.18
10.11
33.83
54.64
71.31
83.54
91.61
96.02
97.28
95.97
92.78
88.45
83.56
78.29
72.36
65.27
56.67
46.73
36.17
25.95
16.88
9.20
2.40
-4.49
-12.53
-22.51
-34.57
-48.31
-62.94
-77.57
-91.42
-103.91
-114.66
-123.35
-129.74
-133.64
-134.99
-133.94
-130.89
-126.52
-121.67
-117.31
-114.37
-113.54
-115.06
-118.47
-122.47
-124.97
-123.51
-115.92
-101.00
-79.05
-51.92
-22.51
6.07
31.23
51.43
66.12
75.40
79.63
79.29
75.03
67.88
59.26
50.69
43.46
38.25
35.07
33.53
33.20
33.93
35.81
39.03
43.47
48.60
53.52
57.31
59.47
60.06
59.64
58.95
58.58
58.80
59.61
60.95
62.82
65.27
68.08
70.69
72.13
71.32
67.44
60.14
49.56
36.17
20.59
3.60
-13.58
-29.14
-40.86
-46.66
-45.30
-36.95
-23.37
-7.37
8.00
20.30
28.20
31.47
30.65
26.51
19.81
11.19
1.39
-8.65
-17.73
-24.55
-28.05
-27.77
-24.09
-18.18
-11.63
-5.91
-1.87
0.56
2.18
4.00
6.72
10.19
13.51
15.39
14.87
11.79
6.85
1.23
-4.13
-8.86
-13.28
-17.97
-23.30
-29.17
-35.11
-40.75
-46.13
-51.94
-58.97
-67.67
-77.59
-87.29
-94.78
-98.19
-96.42
-89.42
-78.12
-64.06
-48.90
-34.09
-20.67
-9.34
-0.49
5.78
9.57
11.38
11.96
12.36
13.61
16.45
21.14
27.31
34.21
40.91
46.67
51.06
54.03
55.80
56.80
57.49
58.30
59.52
61.19
63.16
65.14
66.90
68.31
69.28
69.66
69.06
66.98
63.12
57.62
51.17
44.64
38.60
32.86
