1532571159.00
64.000000
-0.00
-0.00
-0.00
-0.00
-0.00
-0.00
-0.00
-0.00
-0.00
-0.00
0.00
0.01
0.01
-0.00
-0.03
-0.05
-0.05
0.00
0.13
0.36
0.66
1.01
1.37
1.72
2.06
2.40
2.79
3.24
3.80
4.42
5.06
5.66
6.20
6.68
7.15
7.68
8.31
9.14
10.09
11.04
11.88
12.56
13.14
13.76
14.65
15.96
17.91
20.32
22.90
25.38
27.58
29.57
31.68
34.32
37.81
42.54
48.15
54.10
59.83
64.97
69.58
74.14
79.34
85.71
93.76
103.00
112.62
121.73
129.77
136.75
143.30
150.75
157.77
166.64
177.95
191.79
206.97
220.57
228.25
225.36
208.53
176.87
132.76
80.05
23.07
-34.94
-92.44
-149.16
-205.23
-260.37
-313.74
-363.87
-409.83
-450.91
-486.50
-515.74
-537.23
-549.22
-549.96
-538.37
-514.21
-478.67
-433.88
-382.45
-327.02
-269.84
-212.63
-156.66
-102.95
-52.37
-5.90
35.58
71.43
101.35
125.50
144.38
158.69
169.15
176.37
180.75
182.57
182.07
179.51
175.23
169.65
163.18
156.15
148.81
141.30
133.69
126.02
118.33
110.69
103.16
95.80
88.68
81.83
75.25
68.95
62.95
57.25
51.86
46.78
42.03
37.59
33.45
29.61
26.07
22.81
19.83
17.11
14.67
12.48
10.54
8.83
7.35
6.07
4.97
4.05
3.27
2.62
2.09
1.65
1.30
1.01
0.79
0.61
0.48
0.37
0.29
0.23
0.20
0.17
0.16
0.16
0.17
0.18
0.21
0.23
0.27
0.30
0.34
0.39
0.43
0.48
0.52
0.57
0.63
0.69
0.75
0.82
0.89
0.97
1.05
1.15
1.25
1.37
1.49
1.64
1.80
1.98
2.18
2.41
2.65
2.92
3.22
3.55
3.92
4.31
4.74
5.21
5.71
6.25
6.84
7.46
8.13
8.85
9.61
10.42
11.27
12.18
13.12
14.13
15.20
16.33
17.52
18.77
20.03
21.28
22.45
23.47
24.23
24.62
24.55
23.91
22.66
20.76
18.23
15.15
11.59
7.71
3.67
-0.36
-4.23
-7.79
-10.93
-13.57
-15.64
-17.14
-18.10
-18.57
-18.64
-18.39
-17.86
-17.08
-16.04
-14.74
-13.20
-11.42
-9.50
-7.54
-5.62
-3.75
-1.94
-0.13
1.74
3.73
5.90
8.12
10.26
12.26
14.13
15.93
17.79
19.86
22.22
24.93
27.59
29.88
31.58
32.70
33.39
34.02
34.96
36.50
38.76
41.09
42.91
43.83
43.81
43.11
42.32
42.01
42.57
43.99
45.16
45.02
42.71
37.82
30.36
20.53
8.21
-7.59
-23.88
-40.24
-56.83
-74.16
-92.85
-113.45
-135.80
-158.56
-178.80
-192.48
-196.41
-188.85
-170.60
-144.92
-116.43
-89.33
-66.24
-47.80
-33.27
-22.13
-13.99
-8.76
-6.20
-5.63
-5.93
-5.93
-4.93
-2.87
-0.66
0.64
0.26
-2.07
-5.99
-10.69
-15.17
-18.53
-20.13
-19.92
-18.09
-15.00
-11.07
-6.69
-2.16
2.25
6.34
9.93
12.81
14.82
15.85
15.88
15.01
13.46
11.49
9.36
7.28
5.26
3.19
0.95
-1.52
-4.10
-6.51
-8.41
-9.58
-10.08
-10.20
-10.41
-11.16
-12.66
-14.91
-17.70
-20.74
-23.75
-26.51
-28.75
-30.13
-30.26
-28.79
-25.54
-20.47
-13.71
-5.43
4.23
15.09
27.02
39.73
52.82
65.73
77.77
88.22
96.41
101.78
104.02
103.10
99.22
92.80
84.31
74.20
62.85
50.68
38.18
25.96
14.65
4.78
-3.39
-9.91
-15.16
-19.67
-23.92
-28.24
-32.71
-37.18
-41.34
-44.77
-47.06
-47.87
-46.98
-44.42
-40.40
-35.32
-29.74
-24.21
-19.23
-15.20
-12.37
-10.82
-10.46
-11.11
-12.47
-14.30
-16.34
-18.49
-20.72
-23.05
-25.45
-27.76
-29.76
-31.17
-31.73
-31.20
-29.33
-25.86
-20.56
-13.32
-4.29
6.03
16.96
27.77
37.91
47.06
55.05
61.74
66.90
70.24
71.53
70.82
68.42
64.89
60.90
57.01
53.56
50.68
48.27
46.12
43.97
41.61
38.96
36.07
33.08
30.15
27.35
24.65
21.93
19.09
16.02
12.70
9.11
5.24
1.12
-3.15
-7.42
-11.51
-15.34
-18.90
-22.31
-25.69
-29.11
-32.46
-35.48
-37.80
-39.03
-38.86
-37.15
-33.97
-29.66
-24.70
-19.72
-15.24
-11.59
-8.85
-6.82
-5.29
-4.07
-3.18
-2.67
-2.70
-3.26
-4.20
-5.16
-5.84
-6.06
-5.90
-5.59
-5.47
-5.78
-6.60
-7.81
-9.07
-10.08
-10.75
-11.22
-11.85
-13.01
-14.90
-17.36
-19.87
-21.43
-21.25
-19.19
-15.70
-11.74
-8.28
-5.93
-4.76
-4.21
-2.72
1.52
10.15
24.34
44.41
69.51
97.50
125.42
150.36
171.20
187.70
200.05
208.02
210.67
206.35
193.48
171.55
141.95
109.19
78.32
53.15
34.99
22.69
13.59
4.94
-4.81
-21.22
-44.19
-69.98
-93.43
-110.39
-117.66
-112.17
-91.73
-57.82
-16.93
22.23
51.02
65.30
67.48
64.63
63.72
67.10
72.26
72.00
63.08
47.31
30.58
19.54
17.98
24.97
35.84
43.95
44.21
35.91
21.60
5.88
-6.48
-11.98
-9.47
5.64
33.94
73.43
120.78
171.37
220.11
262.07
292.98
309.69
310.73
295.93
267.64
230.88
191.75
155.92
126.79
104.62
86.73
68.63
45.13
12.74
-29.26
-79.14
-133.89
-190.59
-247.14
-302.08
-353.66
-399.58
-436.47
-460.78
-469.92
-462.96
-440.33
-402.99
-351.64
-286.89
-210.66
-127.32
-44.44
28.30
81.89
111.15
116.89
105.72
87.56
71.75
64.19
66.26
75.97
90.26
106.93
125.02
143.81
161.55
174.92
179.86
173.29
154.56
125.80
90.93
54.04
17.92
-16.57
-50.16
-84.41
-120.65
-159.36
-199.84
-240.29
-278.25
-311.24
-337.39
-355.75
-366.31
-369.58
-366.15
-356.50
-340.98
-320.23
-295.55
-268.90
-242.62
-218.50
-196.73
-175.19
-149.65
-115.09
-67.73
-7.08
63.19
135.80
202.00
254.17
287.86
302.61
301.17
287.99
267.56
243.54
218.44
193.95
171.23
151.30
134.96
122.81
114.95
110.80
109.10
107.86
104.78
97.56
84.34
64.05
36.54
2.62
-36.07
-77.35
-118.69
-157.70
-192.24
-220.72
-242.18
-256.22
-262.98
-262.93
-256.88
-245.59
-229.66
-209.32
-184.49
-155.11
-121.35
-83.79
-43.39
-1.30
41.19
82.61
121.27
155.28
182.87
202.89
215.16
220.57
220.73
217.40
212.00
205.44
198.32
191.22
184.88
180.06
177.24
176.27
176.31
176.01
173.83
168.36
158.38
142.87
121.19
93.28
59.98
23.02
-15.37
-53.13
-89.09
-122.96
-155.02
-185.28
-213.07
-237.14
-256.35
-270.41
-280.22
-287.55
-294.07
-300.51
-306.23
-309.38
-307.81
-300.05
-286.04
-267.49
-247.59
-230.25
-218.97
-215.78
-220.46
-230.52
-241.97
-250.57
-253.01
-247.45
-233.22
-210.51
-179.70
-141.51
-97.23
-48.94
0.91
50.20
97.90
143.91
188.39
230.67
268.71
299.47
320.10
329.21
327.51
317.38
301.96
283.90
264.61
244.11
221.53
196.10
168.07
139.42
113.80
95.78
89.41
96.90
117.75
148.54
183.77
216.51
239.48
245.97
231.16
193.78
137.38
70.46
4.57
-49.30
-84.53
-101.00
-104.43
-103.05
-103.40
-107.53
-112.85
-114.50
-108.59
-94.50
-75.14
-55.51
-40.54
-33.15
-33.79
-40.62
-50.45
-59.68
-65.26
-65.30
-59.33
-48.18
-33.55
-17.51
-1.98
11.36
21.14
26.54
27.47
24.80
20.27
15.97
13.46
13.32
14.95
17.05
18.38
18.48
17.85
17.80
19.96
25.71
35.66
49.17
64.28
78.12
87.77
91.43
89.20
83.06
76.02
70.86
68.96
69.96
72.28
74.03
73.90
71.51
67.19
61.47
54.78
47.23
38.76
29.28
18.75
7.25
-4.81
-16.94
-28.63
-39.47
-49.51
-59.06
-68.51
-78.12
-87.72
-96.84
-105.00
-111.84
-116.97
-119.60
-118.47
-112.35
-100.84
-85.20
-68.26
-53.43
-43.22
-38.09
-36.49
-35.87
-34.24
-31.05
-27.08
-23.53
-21.02
-19.17
-17.03
-13.92
-9.93
-5.90
-2.92
-1.70
-2.28
-4.10
-6.09
-7.31
-7.20
-5.72
-3.37
-0.95
0.80
1.57
1.49
1.13
1.24
2.39
4.87
8.70
13.75
19.76
26.20
32.18
36.47
37.82
35.58
30.11
22.74
15.32
9.32
5.38
3.13
1.67
0.23
-1.48
-3.25
-4.84
-6.26
-7.88
-10.16
-13.28
-17.00
-20.79
-24.25
-27.20
-29.89
-32.82
-36.39
-40.67
-45.26
-49.28
-51.68
-51.48
-48.17
-41.98
-33.75
-24.83
-16.46
-9.46
-3.99
0.30
4.03
7.62
11.14
14.37
16.94
18.69
19.71
20.37
21.04
21.98
23.13
24.23
24.93
25.04
24.62
23.99
23.58
23.72
24.62
26.37
29.09
32.88
37.63
42.85
47.50
50.36
50.44
47.59
42.63
36.93
31.87
28.17
25.81
24.16
22.63
20.96
19.23
17.62
16.14
14.53
12.45
9.71
6.43
3.02
-0.12
-2.73
-4.95
-7.28
-10.41
-14.94
-21.02
-28.27
-35.67
-41.93
-45.85
-46.73
-44.65
-40.29
-34.77
-29.13
-24.08
-19.79
-16.01
-12.29
-8.29
-3.96
0.39
4.31
7.38
9.47
10.78
11.75
12.85
14.41
16.56
19.27
22.35
25.51
28.41
30.67
31.96
32.12
31.33
30.04
28.87
28.31
28.53
29.33
30.28
30.93
31.13
31.07
31.23
32.08
33.81
36.14
38.30
39.32
38.30
34.86
29.20
22.13
14.69
7.73
1.71
-3.25
-7.11
-9.68
-10.70
-10.22
-8.81
-7.70
-8.31
-11.62
-17.76
-26.08
-35.67
-45.95
-56.95
-68.92
-81.84
-94.94
-106.80
-115.85
-120.97
-121.75
-118.37
-111.20
-100.26
-85.00
-64.28
-36.94
-2.91
35.85
74.90
108.32
130.95
140.97
141.27
138.67
140.91
153.05
175.19
202.69
228.78
247.74
256.95
256.79
248.99
234.91
214.82
188.65
157.36
123.64
91.60
65.30
47.18
37.12
32.66
30.09
25.97
18.29
7.05
-6.10
-18.59
-28.05
-33.12
-33.73
-31.10
-27.18
-24.12
-23.78
-27.53
-36.11
-49.64
-67.51
-88.38
-110.31
-130.94
-148.01
-159.85
-165.82
-166.49
-163.35
-158.46
-153.70
-150.19
-147.82
-145.10
-139.64
-128.94
-111.56
-88.04
-60.98
-34.44
-12.43
2.48
9.90
11.20
8.43
3.18
-3.84
-12.35
-21.69
-30.35
-36.39
-38.37
-36.24
-31.49
-26.37
-22.71
-21.01
-20.30
-18.81
-15.15
-9.00
-1.50
5.18
8.39
5.67
-4.71
-23.51
-50.30
-83.44
-120.20
-157.18
-190.85
-218.22
-237.45
-248.01
-250.75
-247.32
-239.64
-229.39
-217.69
-205.26
-192.63
-180.37
-169.02
-158.86
-149.62
-140.45
-130.23
-118.08
-103.67
-87.32
-69.84
-52.11
-34.76
-17.98
-1.47
15.43
33.55
53.71
76.55
102.51
131.73
163.99
198.60
234.46
270.05
303.71
333.92
359.65
380.55
396.80
408.91
417.43
422.75
425.18
425.22
423.82
422.43
422.62
425.63
431.58
439.10
445.19
445.84
437.02
416.31
384.16
344.30
303.02
267.30
242.62
231.29
231.78
239.52
248.47
252.89
248.73
234.39
210.78
181.06
149.90
122.33
102.23
90.84
86.02
82.74
74.73
56.60
25.57
-18.25
-72.43
-133.76
-199.37
-267.36
-336.81
-407.56
-480.10
-555.05
-632.12
-708.54
-778.18
-832.03
-860.48
-856.77
-819.82
-755.00
-672.05
-581.93
-493.26
-410.74
-335.52
-266.70
-202.89
-142.89
-86.11
-32.66
16.26
58.24
90.19
109.68
116.74
114.37
108.20
104.41
107.76
120.16
140.70
166.57
194.26
220.53
242.72
259.14
269.36
274.50
277.11
280.36
286.60
296.00
306.57
314.68
317.18
313.16
304.81
296.42
292.44
295.24
303.73
313.69
319.50
316.53
303.05
280.83
253.98
227.02
202.77
181.35
160.35
136.37
106.54
69.58
25.72
-24.01
-78.57
-137.09
-198.41
-260.61
-320.84
-375.98
-423.71
-463.31
-495.80
-523.31
-547.99
-571.11
-592.24
-609.20
-618.39
-615.76
-597.92
-563.39
-513.42
-451.91
-384.52
-317.13
-254.06
-196.92
-144.47
-93.53
-40.76
15.65
74.79
133.13
185.77
228.07
257.06
272.17
274.95
268.33
256.26
243.59
235.71
237.32
250.60
273.60
300.45
323.37
335.66
334.11
319.56
295.43
265.32
231.21
193.09
150.46
103.78
54.92
6.58
-38.56
-78.24
-110.25
-132.01
-141.25
-135.72
-114.40
-78.71
-33.19
15.42
60.08
94.99
116.29
121.03
109.07
83.01
47.01
5.10
-39.75
-85.64
-131.59
-177.40
-225.08
-274.83
-324.36
-370.33
-410.31
-443.36
-469.28
-487.90
-499.08
-504.95
-505.42
-497.70
-477.85
-443.26
-393.35
-328.81
-250.87
-143.97
-10.39
130.79
255.15
348.07
408.06
440.92
454.29
454.84
447.16
432.29
412.09
389.93
369.12
350.62
332.53
311.83
289.79
263.29
230.51
193.27
156.01
123.32
97.54
78.46
64.66
54.37
45.73
36.64
25.95
13.62
0.24
-13.90
-29.14
-43.50
-55.82
-65.88
-74.16
-81.29
-87.60
-93.02
-97.33
-100.33
-101.84
-102.09
-101.57
-100.63
-99.43
-97.93
-95.89
-93.12
-89.54
-85.03
-79.73
-73.93
-67.72
-61.31
-55.01
-49.11
-43.77
-38.95
-34.39
-30.01
-25.76
-21.66
-17.81
-14.33
-11.31
-8.69
-6.30
-3.97
-1.66
0.54
2.40
3.64
4.00
3.30
1.55
-1.17
-4.59
-8.43
-12.31
-15.81
-18.52
-20.05
-20.15
-18.74
-15.97
-12.17
-7.76
-3.14
1.40
5.66
9.54
12.96
15.85
18.18
20.01
21.44
22.59
23.54
24.31
24.86
25.17
25.21
25.03
24.68
24.16
23.51
22.77
22.04
21.44
21.09
21.04
21.20
21.40
21.44
21.17
20.57
19.73
18.80
17.93
17.13
16.40
15.61
14.73
13.73
12.70
11.74
10.91
10.22
9.61
8.98
8.29
7.56
6.85
6.23
5.72
5.33
4.99
4.61
4.10
3.39
2.47
1.44
0.60
0.39
1.32
3.48
6.84
11.24
16.44
22.10
27.78
33.07
37.73
41.64
44.61
46.68
48.21
49.77
51.86
54.68
58.27
62.63
67.77
73.19
78.58
84.05
89.96
96.52
103.59
110.89
118.50
126.56
133.61
138.55
141.49
143.58
145.99
149.19
153.35
159.13
167.04
174.04
178.04
179.56
181.34
185.75
192.83
200.59
206.79
208.03
195.81
164.58
114.98
53.22
-13.47
-80.90
-147.77
-213.21
-278.50
-351.80
-437.97
-534.67
-633.22
-724.22
-802.56
-866.95
-916.92
-906.21
-810.69
-643.42
-448.44
-267.70
-120.83
-9.67
62.62
111.29
145.20
161.41
157.12
134.89
102.42
72.26
50.47
38.52
36.46
40.50
41.08
31.58
11.88
-11.98
-32.49
-45.50
-49.79
-45.47
-35.91
-28.13
-27.01
-33.12
-43.13
-52.96
-60.97
-66.34
-68.59
-69.03
-70.78
-75.86
-83.98
-92.57
-98.23
-98.26
-88.17
-64.10
-25.28
25.19
81.64
137.64
187.61
227.87
256.72
278.38
297.65
316.90
335.12
349.51
357.92
360.37
358.79
355.41
356.11
363.78
377.09
392.01
405.40
417.70
432.56
453.89
457.70
427.07
357.74
261.67
157.27
59.08
-24.85
-91.16
-137.04
-169.32
-189.56
-198.73
-198.93
-193.79
-187.14
-181.94
-178.44
-176.31
-173.50
-165.03
-148.71
-125.96
-100.73
-77.14
-58.46
-45.82
-39.43
-38.74
-41.17
-44.97
-49.47
-54.86
-61.93
-73.01
-86.76
-101.14
-113.23
-118.93
-115.31
-101.61
-79.92
-55.67
-37.48
-32.18
-42.33
-65.33
-94.92
-124.23
-147.58
-161.31
-153.26
-119.05
-65.26
-5.63
48.28
90.81
120.36
137.40
143.83
141.52
130.43
111.32
85.99
56.53
23.65
-13.85
-58.75
-104.06
-145.05
-179.77
-206.16
-220.08
-216.09
-191.00
-146.93
-91.55
-35.28
11.17
41.01
54.02
55.27
51.49
47.38
44.38
42.01
39.82
37.40
35.00
33.41
33.09
33.67
34.12
33.12
30.29
26.42
22.41
19.17
17.31
16.84
17.12
17.09
15.83
13.12
9.49
5.65
2.38
0.18
-0.94
-1.50
-2.22
-3.68
-6.08
-9.18
-12.55
-15.78
-18.57
-20.87
-22.91
-24.97
-27.35
-30.16
-33.35
-36.72
-40.02
-43.00
-45.36
-46.86
-47.32
-46.63
-44.73
-41.79
-37.70
-32.40
-25.93
-18.08
-8.83
1.62
12.77
23.87
34.13
42.85
49.66
54.56
57.94
60.29
62.03
63.29
63.93
63.72
62.35
59.70
55.97
51.68
47.58
44.67
43.92
45.89
50.40
55.82
59.31
57.73
49.00
33.25
13.15
-7.05
-23.29
-32.93
-36.15
-35.13
-32.68
-30.70
-29.61
-28.38
-25.49
-19.82
-10.44
2.89
20.13
41.01
64.46
88.02
108.01
120.41
120.53
108.76
88.98
66.45
45.38
27.83
12.31
-2.97
-18.20
-31.45
-39.12
-38.68
-30.13
-16.33
-1.75
9.46
14.72
13.38
6.04
-6.24
-23.13
-44.90
-71.84
-103.73
-137.52
-169.24
-194.93
-211.57
-217.62
-213.60
-201.55
-184.09
-163.36
-140.40
-115.51
-88.86
-61.26
-34.14
-9.13
12.91
32.45
51.04
70.24
90.16
109.26
125.12
135.93
141.51
143.36
143.57
143.33
142.16
138.06
129.04
114.59
96.49
78.46
64.75
58.30
59.46
65.92
73.84
79.72
81.91
80.95
78.68
76.74
75.27
72.76
66.82
55.76
39.73
20.75
1.95
-13.75
-24.54
-30.19
-31.90
-31.76
-32.23
-35.48
-42.78
-54.10
-67.94
-82.00
-93.85
-101.72
-104.78
-102.96
-96.62
-86.46
-73.82
-60.84
-50.07
-43.52
-41.44
-42.03
-42.29
-39.76
-34.34
-28.58
-26.41
-30.54
-40.41
-51.77
-58.43
-55.26
-40.64
-17.17
9.60
33.69
50.69
58.73
58.13
50.27
36.71
19.11
-0.31
-18.26
-30.44
-32.78
-23.31
-3.47
21.87
46.07
63.45
71.52
71.61
67.68
63.84
62.35
63.20
64.92
66.18
66.56
66.35
65.67
64.23
61.72
58.66
56.80
58.41
64.80
75.07
85.93
92.94
92.43
82.96
65.92
44.86
24.05
7.10
-3.93
-8.82
-8.86
-6.15
-2.84
-0.62
-0.36
-2.24
-5.82
-10.45
-15.35
-19.82
-23.39
-25.83
-27.09
-27.25
-26.56
-25.60
-25.41
-27.43
-33.13
-43.27
-57.47
-73.91
-90.00
-103.29
-112.45
-117.63
-120.15
-121.60
-123.08
-124.78
-126.25
-126.92
-126.63
-125.79
-125.16
-125.32
-126.34
-127.68
-128.39
-127.60
-125.06
-121.18
-116.79
-112.53
-108.40
-103.79
-97.97
-90.81
-83.21
-76.83
-73.34
-73.50
-76.72
-81.30
-85.38
-87.88
-89.01
-90.11
-92.89
-98.66
-107.93
-120.32
-134.78
-149.68
-162.99
-172.36
-175.60
-171.27
-158.83
-138.75
-111.83
-78.36
-37.42
13.10
75.53
150.79
236.94
328.54
417.43
494.77
553.65
591.27
609.57
614.15
611.71
607.23
602.22
594.61
580.17
554.58
514.94
460.60
392.96
315.02
230.75
144.71
61.48
-14.79
-80.90
-135.13
-177.26
-208.40
-230.46
-245.72
-256.38
-264.19
-270.15
-274.36
-276.18
-274.75
-269.61
-261.06
-250.19
-238.41
-226.84
-215.92
-205.41
-194.61
-182.87
-169.92
-156.06
-142.05
-128.92
-117.60
-108.61
-101.87
-96.75
-92.34
-87.86
-83.08
-78.42
-74.72
-72.74
-72.68
-74.05
-75.95
-77.42
-77.87
-77.05
-74.79
-70.71
-64.12
-54.42
-41.50
-26.14
-9.75
6.09
20.35
32.78
43.74
53.68
62.50
69.47
73.41
73.35
69.02
60.99
50.49
38.98
27.72
17.63
9.21
2.63
-2.21
-5.63
-8.13
-10.20
-12.26
-14.55
-17.17
-20.15
-23.53
-27.42
-31.84
-36.76
-42.03
-47.52
-53.20
-59.09
-65.29
-71.85
-78.71
-85.78
-92.96
-100.22
-107.55
-114.89
-122.10
-128.75
-134.23
-137.77
-138.71
-136.64
-131.49
-123.41
-112.50
-98.67
-81.65
-61.29
-37.95
-12.92
11.62
33.02
49.02
58.75
63.29
65.77
70.43
81.50
101.84
132.09
170.56
213.78
257.57
297.93
331.76
356.96
372.38
377.72
373.46
360.88
342.00
319.25
294.93
270.57
246.55
222.12
195.98
167.20
135.87
103.36
71.82
43.20
18.44
-2.85
-21.97
-40.14
-57.79
-74.19
-87.81
-97.11
-101.25
-100.44
-95.92
-89.63
-83.56
-79.21
-77.03
-76.31
-75.37
-72.24
-65.41
-54.47
-40.28
-24.57
-9.25
4.22
15.08
23.23
28.79
31.76
31.93
28.90
22.26
11.67
-2.94
-21.26
-42.62
-66.25
-91.51
-118.27
-146.82
-177.54
-210.28
-243.75
-275.40
-301.79
-319.15
-324.00
-313.77
-287.59
-247.27
-197.83
-146.97
-102.88
-71.24
-52.71
-42.70
-33.56
-18.22
6.88
41.24
81.87
125.85
171.75
219.44
268.70
318.23
365.74
408.93
446.35
477.39
501.40
517.09
522.60
516.41
498.46
470.49
435.49
396.59
356.38
316.57
278.38
242.76
210.35
181.37
155.54
132.12
110.50
90.48
72.19
55.89
41.40
27.90
14.02
-1.72
-20.22
-41.46
-64.57
-88.18
-111.03
-132.40
-152.20
-170.93
-189.51
-209.12
-230.78
-254.62
-279.29
-301.73
-317.94
-324.45
-320.01
-306.54
-288.67
-271.77
-259.49
-251.94
-245.55
-234.76
-214.70
-183.38
-142.43
-96.16
-49.66
-7.18
28.65
56.40
75.10
83.85
82.09
70.47
51.36
28.39
5.42
-14.78
-31.10
-43.82
-53.62
-60.83
-65.20
-66.31
-64.32
-60.34
-56.26
-54.27
-56.17
-62.89
-73.96
-87.30
-99.43
-106.28
-104.41
-92.40
-71.46
-45.10
-17.85
6.24
24.80
37.33
44.65
47.99
48.36
46.43
42.79
38.20
33.62
29.84
27.06
24.61
21.19
15.42
6.49
-5.38
-18.99
-32.62
-44.75
-54.56
-62.13
-68.00
-72.78
-76.65
-79.20
-79.69
-77.50
-72.47
-65.16
-56.64
-48.24
-41.09
-35.75
-32.17
-29.86
-28.15
-26.53
-24.74
-22.68
-20.36
-17.65
-14.43
-10.56
-6.12
-1.38
3.21
7.24
10.52
13.09
15.23
17.26
19.40
21.61
23.65
25.18
25.87
25.49
23.95
21.36
18.09
14.70
11.81
9.83
8.81
8.35
7.81
6.66
4.73
2.37
0.13
-1.48
-2.30
-2.52
-2.56
-2.79
-3.41
-4.40
-5.64
-7.03
-8.58
-10.40
-12.57
-15.07
-17.82
-20.58
-23.12
-25.29
-27.01
-28.25
-28.96
-28.89
-27.72
-25.13
-21.04
-15.70
-9.73
-3.87
1.22
5.16
7.93
9.75
11.00
11.98
12.88
13.78
14.61
15.30
15.76
15.93
15.76
15.24
14.48
13.58
12.69
11.96
11.51
11.40
11.65
12.25
13.11
14.11
15.14
16.07
16.86
17.53
18.16
18.85
19.60
20.34
20.87
21.00
20.61
19.69
18.37
16.78
15.06
13.26
11.37
9.42
7.40
5.34
3.23
0.98
-1.55
-4.50
-7.89
-11.55
-15.15
-18.33
-20.88
-22.72
-23.97
-24.79
-25.27
-25.41
-25.21
-24.71
-24.04
-23.34
-22.58
-21.54
-19.76
-16.80
-12.41
-6.72
-0.28
6.07
11.48
15.33
17.38
17.84
17.21
16.07
14.85
13.70
12.55
11.23
9.61
7.75
5.83
4.14
2.81
1.91
1.39
1.24
1.53
2.40
3.99
6.28
9.04
11.85
14.31
16.14
17.37
18.25
19.12
20.15
21.30
22.30
22.75
22.41
21.25
19.46
17.37
15.30
13.44
11.92
10.76
9.98
9.45
8.98
8.21
6.78
4.47
1.41
-1.99
-5.21
-7.78
-9.54
-10.70
-11.63
-12.72
-14.25
-16.23
-18.58
-21.05
-23.33
-25.01
-25.65
-24.92
-22.71
-19.22
-14.88
-10.25
-5.78
-1.69
2.00
5.36
8.41
11.09
13.21
14.60
15.25
15.23
14.73
13.96
13.07
12.19
11.43
10.92
10.79
11.09
11.74
12.61
13.50
14.23
14.65
14.70
14.35
13.56
12.34
10.72
8.79
6.70
4.62
2.73
1.12
-0.20
-1.28
-2.24
-3.16
-4.07
-4.95
-5.76
-6.50
-7.15
-7.75
-8.33
-8.93
-9.59
-10.35
-11.22
-12.18
-13.13
-13.96
-14.58
-15.00
-15.34
-15.82
-16.68
-18.01
-19.76
-21.66
-23.31
-24.24
-24.07
-22.56
-19.74
-15.88
-11.49
-7.12
-3.25
-0.18
2.09
3.73
5.05
6.32
7.66
9.08
10.45
11.58
12.32
12.62
12.58
12.38
12.24
12.29
12.56
12.98
13.43
13.83
14.12
14.30
14.33
14.11
13.53
12.50
11.00
9.08
6.79
4.20
1.40
-1.40
-3.91
-5.85
-7.08
-7.75
-8.27
-9.06
-10.39
-12.17
-14.06
-15.67
-16.71
-17.22
-17.33
-17.17
-16.74
-16.05
-15.18
-14.45
-14.28
-14.99
-16.57
-18.61
-20.51
-21.76
-22.26
-22.36
-22.65
-23.63
-25.37
-27.49
-29.29
-30.05
-29.35
-27.16
-23.84
-19.88
-15.73
-11.62
-7.64
-3.78
-0.01
3.57
6.90
9.90
12.62
15.17
17.67
20.20
22.75
25.23
27.51
29.47
31.03
32.19
32.99
33.54
33.94
34.25
34.45
34.42
33.99
33.06
31.70
30.09
28.52
27.18
26.08
25.06
23.93
22.63
21.27
20.06
19.23
18.85
18.84
19.00
19.14
19.16
19.07
18.89
18.61
18.12
17.26
15.98
14.36
12.62
11.03
9.76
8.81
8.01
7.11
5.97
4.58
3.10
1.70
0.41
-0.93
-2.66
-5.11
-8.43
-12.46
-16.74
-20.68
-23.71
-25.50
-26.04
-25.55
-24.32
-22.62
-20.60
-18.26
-15.56
-12.51
-9.20
-5.89
-2.88
-0.38
1.50
2.88
3.95
4.91
5.86
6.78
7.60
8.32
8.97
9.65
10.43
11.31
12.20
12.95
13.44
13.61
13.45
13.01
12.41
11.76
11.22
10.87
10.72
10.73
10.79
10.82
10.81
10.80
10.82
10.93
11.07
11.20
11.25
11.18
10.97
10.53
9.78
8.65
7.11
5.25
3.20
1.07
-1.09
-3.32
-5.64
-7.99
-10.19
-12.00
-13.24
-13.88
-14.09
-14.21
-14.63
-15.62
-17.25
-19.33
-21.45
-23.11
-23.77
-23.05
-20.77
-17.06
-12.35
-7.27
-2.49
1.48
4.35
6.16
7.13
7.57
7.75
7.84
7.93
8.10
8.41
8.92
9.64
10.47
11.27
11.83
12.00
11.71
11.01
9.99
8.82
7.66
6.62
5.83
5.32
5.13
5.27
5.74
6.53
7.55
8.72
9.88
10.95
11.88
12.71
13.53
14.31
14.95
15.23
14.95
14.00
12.46
10.54
8.50
6.54
4.76
3.17
1.67
0.16
-1.46
-3.28
-5.37
-7.69
-10.10
-12.34
-14.11
-15.25
-15.81
-16.11
-16.60
-17.66
-19.37
-21.47
-23.39
-24.45
-24.18
-22.46
-19.60
-16.10
-12.57
-9.45
-6.98
-5.21
-4.05
-3.37
-3.02
-2.82
-2.61
-2.19
-1.41
-0.19
1.52
3.72
6.35
9.37
12.70
16.31
20.17
24.27
28.60
32.97
37.14
40.78
43.65
45.58
46.63
47.01
46.96
46.67
46.19
45.49
44.48
43.12
41.37
39.30
36.91
34.22
31.24
28.09
24.99
22.22
20.04
18.53
17.52
16.69
15.69
14.33
12.67
10.97
9.49
8.37
7.58
6.88
5.99
4.70
2.95
0.77
-1.81
-4.77
-8.06
-11.51
-14.82
-17.56
-19.34
-19.88
-19.17
-17.46
-15.16
-12.68
-10.37
-8.42
-6.91
-5.82
-5.10
-4.64
-4.34
-4.15
-4.02
-3.92
-3.80
-3.61
-3.31
-2.91
-2.43
-1.90
-1.36
-0.81
-0.21
0.43
1.06
1.61
1.95
2.02
1.81
1.36
0.74
0.01
-0.82
-1.86
-3.31
-5.39
-8.32
-12.13
-16.58
-21.21
-25.48
-28.88
-31.11
-32.07
-31.85
-30.66
-28.72
-26.27
-23.60
-20.98
-18.65
-16.80
-15.45
-14.51
-13.89
-13.51
-13.41
-13.69
-14.38
-15.41
-16.54
-17.39
-17.56
-16.78
-15.04
-12.56
-9.75
-7.02
-4.68
-2.83
-1.50
-0.67
-0.39
-0.65
-1.34
-2.10
-2.50
-2.10
-0.74
1.39
3.85
6.13
7.94
9.24
10.19
10.97
11.67
12.24
12.65
12.92
13.14
13.47
13.96
14.53
15.03
15.27
15.17
14.77
14.19
13.54
12.89
12.21
11.40
10.39
9.14
7.66
6.02
4.33
2.70
1.20
-0.17
-1.41
-2.57
-3.64
-4.55
-5.25
-5.71
-5.99
-6.22
-6.57
-7.16
-7.98
-9.01
-10.18
-11.44
-12.75
-14.01
-14.98
-15.37
-14.92
-13.52
-11.35
-8.70
-5.94
-3.33
-0.95
1.24
3.36
5.45
7.52
9.54
11.47
13.24
14.81
16.10
17.06
17.71
18.15
18.53
18.96
19.40
19.75
19.85
19.68
19.29
18.84
18.41
17.98
17.43
16.58
15.31
13.63
11.64
9.54
7.56
5.93
4.88
4.53
4.77
5.37
5.95
6.22
6.09
5.72
5.38
5.31
5.52
5.88
6.14
6.14
5.85
5.30
4.52
3.46
1.94
-0.20
-3.04
-6.51
-10.40
-14.38
-18.13
-21.42
-24.11
-26.08
-27.27
-27.52
-26.71
-24.77
-21.89
-18.43
-14.94
-11.95
-9.78
-8.43
-7.69
-7.25
-6.90
-6.57
-6.30
-6.14
-6.05
-5.94
-5.67
-5.16
-4.36
-3.28
-1.89
-0.16
1.89
4.25
6.86
9.78
13.22
17.66
23.63
31.57
41.56
53.15
65.27
76.45
85.06
89.72
89.69
85.13
77.07
67.18
57.17
48.29
41.00
35.01
29.65
24.39
19.16
14.40
10.81
9.02
9.31
11.49
14.99
18.97
22.40
24.33
24.14
21.68
17.43
12.40
7.88
5.05
4.61
6.63
10.53
15.24
19.55
22.38
23.01
21.09
16.62
9.79
0.89
-9.70
-21.57
-34.14
-46.69
-58.39
-68.37
-75.88
-80.48
-82.12
-81.20
-78.46
-74.82
-71.04
-67.60
-64.62
-62.10
-59.98
-58.40
-57.59
-57.74
-58.82
-60.50
-62.20
-63.16
-62.68
-60.23
-55.64
-49.12
-41.18
-32.52
-23.81
-15.56
-8.05
-1.38
4.38
9.15
12.79
15.27
16.74
17.58
18.29
19.30
20.84
22.84
25.04
27.05
28.56
29.40
29.53
29.05
28.05
26.54
24.44
21.56
17.67
12.60
6.35
-0.89
-8.78
-16.93
-25.01
-32.78
-40.09
-46.69
-52.25
-56.29
-58.41
-58.39
-56.35
-52.71
-48.07
-43.00
-37.92
-32.99
-28.22
-23.55
-18.97
-14.54
-10.34
-6.41
-2.62
1.34
5.84
11.15
17.28
23.92
30.57
36.73
42.07
46.50
50.05
52.68
54.17
54.21
52.54
49.14
44.35
38.70
32.73
26.84
21.28
16.13
11.48
7.39
3.84
0.67
-2.40
-5.63
-9.03
-12.33
-14.93
-16.23
-15.81
-13.73
-10.52
-7.00
-4.06
-2.39
-2.37
-4.02
-7.00
-10.70
-14.36
-17.16
-18.55
-18.38
-16.97
-15.11
-13.75
-13.75
-15.58
-19.16
-23.84
-28.54
-32.04
-33.30
-31.72
-27.39
-21.07
-13.97
-7.38
-2.33
0.66
1.65
1.15
-0.13
-1.46
-2.23
-2.05
-0.77
1.54
4.57
7.82
10.75
12.84
13.78
13.46
12.10
9.97
7.45
4.84
2.41
0.32
-1.36
-2.72
-3.95
-5.22
-6.64
-8.12
-9.48
-10.53
-11.24
-11.71
-12.20
-12.94
-14.06
-15.51
-17.16
-18.81
-20.21
-21.06
-21.19
-20.57
-19.54
-18.75
-18.95
-20.63
-23.74
-27.57
-31.06
-33.36
-34.23
-34.31
-34.91
-37.40
-42.52
-49.97
-58.44
-66.05
-70.94
-71.94
-68.70
-61.76
-52.57
-43.34
-36.79
-35.43
-40.36
-50.18
-60.59
-65.43
-58.84
-37.81
-3.75
37.70
78.72
112.20
133.97
143.66
143.77
137.95
129.40
120.04
110.69
101.58
92.80
84.52
76.79
69.42
61.81
53.27
43.33
32.16
20.60
10.09
2.00
-2.84
-4.65
-4.63
-4.57
-6.11
-10.17
-16.68
-24.73
-33.20
-41.29
-48.80
-55.94
-62.97
-69.68
-75.29
-78.51
-77.99
-72.78
-62.82
-49.10
-33.57
-18.54
-5.90
3.62
10.74
17.21
24.92
34.95
47.04
59.88
71.95
82.25
90.55
96.93
101.14
102.22
98.97
90.78
78.30
63.28
47.77
33.02
18.96
4.54
-11.36
-28.87
-46.79
-63.01
-75.42
-82.87
-85.40
-83.88
-79.31
-72.28
-62.88
-51.01
-36.95
-21.65
-6.57
6.86
17.69
25.80
31.78
36.49
40.65
44.58
48.09
50.74
52.04
51.60
49.25
45.15
39.70
33.55
27.43
22.06
17.94
15.29
14.06
13.91
14.34
14.64
13.94
11.46
6.72
-0.23
-8.66
-17.33
-24.80
-29.86
-31.85
-30.87
-27.65
-23.38
-19.28
-16.34
-15.06
-15.38
-16.79
-18.58
-20.13
-21.15
-21.67
-21.91
-22.09
-22.27
-22.33
-22.15
-21.70
-21.10
-20.57
-20.32
-20.45
-20.87
-21.39
-21.81
-21.97
-21.91
-21.78
-21.79
-22.10
-22.74
-23.57
-24.32
-24.80
-24.95
-24.97
-25.16
-25.81
-27.01
-28.59
-30.28
-31.82
-33.23
-34.70
-36.49
-38.72
-41.19
-43.37
-44.61
-44.34
-42.35
-38.87
-34.40
-29.57
-24.92
-20.79
-17.27
-14.21
-11.35
-8.29
-4.67
-0.20
5.28
11.65
18.57
25.47
31.63
36.40
39.20
39.68
37.76
33.69
27.99
21.41
14.78
8.76
3.76
-0.20
-3.36
-6.13
-8.86
-11.76
-14.80
-17.84
-20.74
-23.43
-26.03
-28.74
-31.73
-34.90
-37.86
-39.87
-40.07
-37.76
-32.69
-25.26
-16.50
-7.91
-1.14
2.43
2.22
-1.21
-5.83
-8.48
-5.70
4.98
23.81
48.20
73.34
93.75
105.37
107.05
100.92
91.25
82.72
78.64
80.17
86.62
96.38
107.79
119.53
130.42
139.22
144.63
145.81
142.92
137.22
130.75
125.50
122.72
122.68
124.83
128.31
132.24
135.95
139.00
141.23
142.88
144.54
146.92
150.32
154.33
157.65
158.47
155.08
146.50
132.72
114.59
93.47
70.70
47.36
24.18
1.63
-20.00
-40.47
-59.69
-77.78
-95.17
-112.48
-130.23
-148.50
-166.62
-183.28
-196.91
-206.17
-210.50
-210.29
-206.72
-201.30
-195.38
-189.77
-184.58
-179.34
-173.28
-165.66
-156.04
-144.55
-131.81
-118.76
-106.40
-95.39
-85.97
-78.01
-71.16
-65.10
-59.69
-54.99
-51.17
-48.48
-47.14
-47.18
-48.18
-48.90
-47.50
-42.11
-31.83
-17.50
-1.60
12.59
22.51
27.29
28.00
26.59
24.77
23.08
20.97
17.58
12.70
7.05
1.91
-1.64
-3.32
-3.76
-3.96
-4.89
-7.05
-10.39
-14.48
-18.81
-22.87
-26.29
-28.78
-30.22
-30.64
-30.26
-29.54
-29.01
-29.06
-29.81
-30.95
-31.96
-32.40
-32.32
-32.36
-33.51
-36.63
-41.83
-48.21
-54.19
-58.14
-58.86
-55.76
-48.58
-37.25
-21.86
-3.01
17.93
39.05
58.67
76.03
91.62
106.77
122.69
139.56
156.33
171.03
181.67
186.80
185.72
178.29
164.72
145.59
122.08
96.08
69.96
46.07
25.95
9.89
-3.22
-15.39
-28.67
-44.38
-62.56
-82.10
-101.04
-117.34
-129.18
-135.35
-135.44
-130.02
-120.62
-109.59
-99.55
-92.47
-89.11
-88.72
-89.53
-89.55
-87.32
-82.34
-74.93
-65.82
-55.87
-45.83
-36.30
-27.55
-19.38
-11.08
-1.60
9.98
23.98
39.88
56.44
72.28
86.45
98.76
109.74
120.07
130.13
139.58
147.44
152.58
154.26
152.69
149.03
144.98
141.87
140.04
138.52
135.55
129.46
119.53
106.27
90.91
74.42
56.53
35.46
8.64
-25.95
-68.39
-116.15
-164.58
-208.25
-242.54
-264.54
-273.25
-268.88
-252.12
-223.74
-184.68
-136.44
-81.35
-22.42
37.15
94.41
146.94
192.93
231.08
260.74
282.03
296.06
304.70
310.18
314.43
318.55
322.59
325.71
326.79
324.96
320.18
313.35
306.36
301.56
300.95
305.37
313.66
322.63
327.79
324.70
310.42
284.41
248.59
206.45
161.74
117.51
75.76
37.64
3.93
-24.73
-48.05
-66.21
-80.00
-90.52
-98.67
-104.89
-109.08
-111.02
-110.85
-109.27
-107.52
-106.79
-107.81
-110.54
-114.23
-118.07
-121.70
-125.59
-130.97
-139.26
-151.33
-166.93
-184.85
-203.31
-220.82
-236.77
-251.61
-266.75
-284.24
-306.50
-335.59
-372.15
-414.15
-456.08
-489.51
-505.01
-495.29
-457.86
-396.32
-319.37
-238.15
-162.84
-100.28
-53.21
-21.08
-1.92
6.44
5.96
-0.75
-9.62
-15.38
-13.02
0.03
22.44
48.99
72.90
88.96
95.92
96.73
96.67
100.52
110.24
124.40
139.04
149.45
151.63
143.10
123.26
93.24
55.66
14.05
-27.70
-66.12
-98.43
-122.97
-139.15
-147.57
-149.74
-147.82
-144.13
-140.47
-137.73
-135.83
-134.26
-132.47
-130.21
-127.36
-123.72
-118.85
-112.19
-103.49
-93.10
-82.07
-71.70
-63.11
-56.78
-52.49
-49.56
-47.20
-44.83
-42.14
-39.14
-35.91
-32.62
-29.38
-26.29
-23.44
-20.91
-18.83
-17.38
-16.77
-17.13
-18.42
-20.32
-22.03
-22.46
-20.53
-15.51
-7.38
3.05
14.48
25.56
35.27
43.19
49.38
54.16
57.80
60.54
62.52
63.95
65.12
66.32
67.77
69.55
71.49
73.32
74.68
75.25
74.83
73.41
71.13
68.33
65.33
62.44
59.78
57.31
54.74
51.77
48.10
43.65
38.67
33.65
29.17
25.69
23.37
22.06
21.45
21.22
21.10
20.88
20.33
19.25
17.56
15.48
13.51
12.26
12.05
12.70
13.45
13.29
11.45
7.70
2.44
-3.55
-9.54
-15.24
-20.75
-26.47
-32.69
-39.30
-45.74
-51.18
-54.72
-55.79
-54.36
-50.89
-46.28
-41.60
-37.73
-35.04
-33.34
-31.88
-29.69
-25.99
-20.35
-12.78
-3.49
7.30
19.38
32.38
45.61
57.98
68.24
75.47
79.42
80.61
80.06
78.75
77.20
75.39
72.97
69.67
65.49
60.68
55.61
50.64
46.08
42.16
39.09
36.96
35.65
34.68
33.41
31.18
27.66
23.01
17.86
13.05
9.33
7.06
6.07
5.77
5.39
4.24
1.97
-1.35
-5.33
-9.43
-13.25
-16.58
-19.50
-22.17
-24.69
-27.01
-28.91
-30.05
-30.16
-29.13
-27.03
-24.12
-20.80
-17.51
-14.64
-12.36
-10.60
-9.09
-7.45
-5.37
-2.66
0.64
4.32
8.17
12.01
15.62
18.82
21.37
23.09
23.98
24.29
24.47
25.00
26.16
27.85
29.69
31.10
31.59
31.00
29.42
27.15
24.55
21.81
19.01
16.09
12.98
9.53
5.66
1.29
-3.51
-8.43
-12.95
-16.39
-18.18
-18.11
-16.51
-14.10
-11.75
-10.07
-9.22
-8.98
-8.92
-8.78
-8.65
-9.01
-10.51
-13.61
-18.37
-24.29
-30.42
-35.59
-38.79
-39.40
-37.36
-33.15
-27.61
-21.65
-16.07
-11.35
-7.68
-4.94
-2.85
-1.03
0.89
3.13
5.72
8.48
11.17
13.61
15.76
17.76
19.83
22.04
24.31
26.40
27.98
28.83
28.90
28.25
27.03
25.38
23.41
21.14
18.62
15.89
13.07
10.37
8.01
6.17
4.93
4.26
4.00
4.05
4.30
4.72
5.30
5.97
6.65
7.15
7.31
7.08
6.51
5.75
5.04
4.55
4.29
4.08
3.60
2.50
0.52
-2.32
-5.71
-9.16
-12.14
-14.24
-15.23
-15.10
-13.96
-12.03
-9.60
-6.99
-4.54
-2.52
-1.09
-0.25
0.08
0.09
-0.03
-0.11
-0.03
0.28
0.76
1.31
1.82
2.19
2.42
2.58
2.82
3.24
3.88
4.75
5.87
7.31
9.16
11.46
14.10
16.84
19.35
21.40
22.96
24.13
25.04
25.75
26.19
26.22
25.73
24.78
23.55
22.25
21.05
19.91
18.63
16.98
14.81
12.11
9.08
6.03
3.23
0.88
-1.06
-2.77
-4.54
-6.65
-9.26
-12.26
-15.29
-17.78
-19.06
-18.66
-16.50
-12.91
-8.63
-4.44
-0.92
1.74
3.73
5.38
7.05
8.96
11.25
14.08
17.61
21.89
26.71
31.57
35.85
39.05
41.06
42.16
42.80
43.30
43.70
43.81
43.39
42.34
40.66
38.36
35.39
31.59
26.92
21.65
16.33
11.53
7.66
4.67
2.27
0.13
-1.85
-3.58
-4.88
-5.76
-6.46
-7.37
-8.76
-10.61
-12.60
-14.35
-15.62
-16.44
-17.13
-18.10
-19.69
-22.02
-25.02
-28.46
-32.04
-35.44
-38.29
-40.30
-41.24
-40.99
-39.62
-37.27
-34.15
-30.44
-26.37
-22.17
-18.19
-14.79
-12.31
-10.84
-10.28
-10.29
-10.48
-10.53
-10.21
-9.47
-8.28
-6.72
-4.88
-3.00
-1.41
-0.43
-0.30
-1.01
-2.37
-3.98
-5.47
-6.56
-7.10
-7.04
-6.40
-5.20
-3.53
-1.57
0.38
1.94
2.76
2.67
1.70
0.10
-1.85
-3.97
-6.19
-8.56
-11.15
-13.92
-16.75
-19.42
-21.70
-23.33
-23.97
-23.26
-20.82
-16.38
-10.01
-2.20
6.15
14.05
20.66
25.70
29.41
32.43
35.41
38.65
41.94
44.73
46.44
46.70
45.50
43.07
39.71
35.58
30.82
25.65
20.46
15.82
12.26
10.08
9.20
9.19
9.46
9.51
9.15
8.43
7.52
6.62
5.79
4.92
3.79
2.22
0.13
-2.35
-4.97
-7.39
-9.37
-10.76
-11.59
-11.99
-12.16
-12.22
-12.23
-12.23
-12.22
-12.23
-12.35
-12.65
-13.05
-13.30
-13.04
-11.86
-9.48
-5.87
-1.31
3.68
8.43
12.31
14.83
15.74
14.99
12.72
9.23
4.94
0.37
-4.03
-7.93
-11.22
-14.03
-16.58
-19.15
-21.87
-24.76
-27.79
-30.92
-34.19
-37.60
-41.07
-44.40
-47.27
-49.41
-50.77
-51.48
-51.87
-52.22
-52.69
-53.25
-53.78
-54.13
-54.15
-53.63
-52.25
-49.58
-45.18
-38.74
-30.18
-19.59
-7.05
7.48
24.17
43.11
64.02
86.01
107.59
127.03
142.78
153.89
160.08
161.54
158.50
150.92
138.58
121.51
100.59
77.82
55.93
37.55
24.46
17.17
15.16
17.22
22.03
28.29
34.66
39.63
41.61
39.26
31.87
19.71
3.98
-13.40
-30.11
-43.77
-52.35
-54.34
-49.07
-36.68
-17.90
6.39
35.37
68.25
104.03
141.50
179.36
216.67
253.07
288.56
322.82
354.47
380.79
398.38
404.38
397.58
378.86
350.74
316.23
277.82
237.12
195.20
153.25
113.08
76.91
46.80
23.94
8.23
-1.53
-7.18
-10.49
-12.73
-14.61
-16.58
-19.15
-23.22
-30.04
-40.95
-57.05
-78.89
-106.51
-139.31
-175.94
-214.08
-250.54
-281.70
-304.37
-316.74
-319.07
-313.47
-303.06
-290.78
-278.48
-266.75
-255.37
-244.01
-232.77
-222.07
-212.32
-203.44
-194.79
-185.36
-174.41
-161.75
-147.96
-134.05
-121.02
-109.36
-98.95
-89.19
-79.56
-69.95
-60.83
-52.96
-46.94
-42.81
-39.91
-37.31
-34.20
-30.36
-26.18
-22.39
-19.64
-18.07
-17.35
-16.91
-16.28
-15.29
-14.22
-13.53
-13.62
-14.58
-16.09
-17.54
-18.23
-17.69
-15.83
-12.94
-9.55
-6.20
-3.28
-0.96
0.72
1.77
2.15
1.85
1.00
-0.20
-1.45
-2.53
-3.39
-4.16
-4.99
-5.99
-7.09
-8.10
-8.77
-8.90
-8.45
-7.54
-6.42
-5.39
-4.70
-4.54
-4.92
-5.69
-6.61
-7.44
-7.96
-8.04
-7.58
-6.51
-4.84
-2.63
-0.03
2.73
5.44
7.89
9.92
11.41
12.24
12.31
11.64
10.43
9.09
8.03
7.54
7.60
7.88
7.94
7.41
6.20
4.39
2.20
-0.21
-2.83
-5.81
-9.26
-13.17
-17.30
-21.17
-24.19
-25.86
-25.87
-24.24
-21.23
-17.36
-13.19
-9.26
-5.95
-3.50
-1.94
-1.19
-1.05
-1.28
-1.65
-2.01
-2.24
-2.31
-2.18
-1.81
-1.18
-0.33
0.65
1.66
2.63
3.51
4.29
4.88
5.12
4.84
3.88
2.28
0.23
-1.91
-3.80
-5.26
-6.27
-7.00
-7.62
-8.16
-8.50
-8.50
-8.00
-7.00
-5.62
-4.12
-2.72
-1.64
-0.96
-0.70
-0.87
-1.46
-2.51
-4.06
-6.11
-8.58
-11.30
-14.05
-16.64
-18.93
-20.78
-22.08
-22.61
-22.13
-20.45
-17.59
-13.91
-9.99
-6.38
-3.40
-0.98
1.22
3.60
6.31
9.16
11.71
13.55
14.53
14.82
14.78
14.77
15.00
15.42
15.86
16.24
16.52
16.77
17.06
17.37
17.55
17.43
16.86
15.87
14.58
13.22
12.07
11.26
10.82
10.53
10.08
9.06
7.27
4.69
1.62
-1.47
-3.91
-5.04
-4.29
-1.37
3.66
10.18
17.13
23.18
27.09
28.14
26.31
22.18
16.66
10.51
4.13
-2.44
-9.40
-16.81
-24.42
-31.65
-37.66
-41.64
-43.01
-41.67
-37.95
-32.56
-26.36
-20.18
-14.59
-9.90
-6.19
-3.38
-1.37
-0.04
0.76
1.26
1.76
2.56
3.85
5.65
7.76
9.86
11.66
13.01
13.99
14.86
15.88
17.23
18.88
20.60
22.10
23.13
23.57
23.43
22.79
21.76
20.49
19.17
17.98
17.12
16.64
16.41
16.15
15.54
14.41
12.83
11.09
9.54
8.41
7.69
7.13
6.42
5.32
3.81
1.96
-0.10
-2.33
-4.74
-7.36
-10.16
-12.97
-15.58
-17.78
-19.55
-20.98
-22.25
-23.50
-24.72
-25.68
-26.05
-25.51
-23.84
-21.13
-17.71
-14.07
-10.70
-7.86
-5.52
-3.41
-1.18
1.30
3.92
6.30
8.05
8.99
9.21
9.09
9.01
9.16
9.47
9.80
9.99
10.15
10.51
11.40
12.95
15.01
17.19
18.97
19.93
19.87
18.89
17.27
15.42
13.68
12.17
10.77
9.09
6.63
3.09
-1.51
-6.70
-11.71
-15.81
-18.68
-20.65
-22.60
-25.58
-30.25
-36.42
-43.17
-49.22
-53.59
-56.17
-57.72
-59.35
-61.86
-65.23
-68.73
-71.43
-72.46
-71.11
-66.58
-58.02
-44.83
-27.45
-7.49
12.63
30.90
46.85
62.04
79.65
102.83
132.73
167.41
201.86
229.48
244.19
242.53
224.65
193.94
155.72
115.15
75.78
39.15
5.69
-23.87
-47.61
-62.84
-67.32
-60.77
-45.43
-25.25
-4.56
13.17
25.82
32.52
33.03
27.50
16.44
0.96
-17.11
-35.49
-51.77
-63.83
-70.03
-69.36
-61.45
-46.70
-26.27
-1.86
24.70
51.85
78.48
103.65
126.37
145.44
159.70
168.55
172.36
172.64
171.70
171.96
175.15
181.74
190.90
200.90
209.91
216.69
220.95
223.28
224.58
225.49
225.99
225.46
223.08
218.38
211.40
202.70
192.91
182.37
170.93
158.01
143.05
125.69
106.18
85.13
63.40
41.75
20.62
0.07
-20.34
-41.79
-66.44
-97.15
-136.80
-186.67
-245.15
-307.16
-365.30
-412.33
-443.82
-459.87
-464.64
-464.39
-464.77
-469.13
-477.98
-489.66
-501.23
-508.83
-508.08
-494.33
-463.57
-413.45
-344.04
-257.87
-159.29
-53.61
53.49
156.47
250.37
331.31
397.14
447.63
484.10
508.71
523.51
530.09
529.54
522.72
510.11
491.47
465.40
429.51
381.30
319.50
245.16
161.68
74.09
-12.28
-92.92
-164.78
-226.47
-277.96
-320.06
-353.71
-379.45
-397.26
-406.71
-407.48
-399.95
-385.40
-365.79
-343.32
-319.67
-295.88
-272.43
-249.56
-227.50
-206.34
-185.98
-165.92
-145.75
-125.49
-105.79
-87.78
-72.56
-60.69
-51.83
-44.94
-38.62
-31.72
-23.69
-14.68
-5.30
3.71
11.79
18.68
24.38
29.03
32.83
35.97
38.63
40.94
42.97
44.77
46.36
47.80
49.19
50.59
52.00
53.31
54.36
55.12
55.69
56.33
57.31
58.76
60.51
62.17
63.29
63.60
63.17
62.30
61.34
60.41
59.26
57.36
54.09
49.08
42.28
34.04
24.90
15.43
6.03
-3.18
-12.32
-21.70
-31.53
-41.76
-51.97
-61.38
-69.04
-74.16
-76.44
-76.11
-73.96
-70.98
-68.04
-65.56
-63.37
-60.85
-57.15
-51.51
-43.49
-33.09
-20.71
-7.07
6.97
20.54
32.84
43.36
51.93
58.71
64.01
68.09
71.03
72.74
73.07
72.06
70.01
67.35
64.52
61.73
58.91
55.82
52.24
48.11
43.60
38.99
34.54
30.38
26.48
22.76
19.18
15.77
12.66
9.94
7.59
5.51
3.54
1.55
-0.46
-2.42
-4.15
-5.57
-6.72
-7.78
-9.07
-10.85
-13.24
-16.14
-19.28
-22.30
-24.99
-27.32
-29.52
-31.90
-34.82
-38.50
-42.91
-47.77
-52.44
-56.04
-57.47
-55.76
-50.41
-41.76
-30.99
-19.79
-9.81
-2.02
3.52
7.50
10.81
14.07
17.30
20.12
22.13
23.21
23.66
23.95
24.44
25.20
26.05
26.71
27.04
27.15
27.22
27.47
27.95
28.50
28.76
28.38
27.11
24.94
22.12
19.03
16.13
13.78
12.10
11.06
10.48
10.13
9.82
9.45
8.97
8.43
7.87
7.34
6.88
6.43
5.84
4.94
3.59
1.71
-0.59
-3.14
-5.70
-8.07
-10.17
-12.01
-13.64
-15.10
-16.39
-17.49
-18.42
-19.26
-20.19
-21.42
-23.21
-25.74
-29.12
-33.25
-37.77
-42.05
-45.29
-46.70
-45.73
-42.23
-36.50
-29.20
-21.17
-13.19
-5.88
0.36
5.36
9.12
11.79
13.62
14.81
15.58
16.05
16.27
16.30
16.21
16.13
16.20
16.60
17.47
18.95
21.14
24.01
27.40
30.92
34.14
36.59
37.99
38.29
37.70
36.54
35.11
33.64
32.22
30.83
29.45
28.04
26.62
25.20
23.80
22.42
21.10
19.86
18.70
17.66
16.74
15.91
15.04
13.98
12.57
10.75
8.57
6.23
3.90
1.69
-0.49
-2.81
-5.44
-8.45
-11.73
-15.06
-18.22
-21.08
-23.67
-26.12
-28.66
-31.53
-34.90
-38.78
-42.92
-46.77
-49.52
-50.31
-48.48
-43.86
-36.78
-28.06
-18.77
-9.90
-2.24
3.90
8.49
11.78
14.13
15.89
17.31
18.55
19.61
20.42
20.92
21.11
21.07
20.99
20.99
21.12
21.33
21.50
21.47
21.12
20.39
19.28
17.82
16.09
14.21
12.28
10.47
8.92
7.75
7.04
6.80
6.94
7.25
7.48
7.36
6.77
5.79
4.66
3.67
2.94
2.28
1.27
-0.58
-3.51
-7.33
-11.42
-15.06
-17.69
-19.21
-19.98
-20.52
-21.23
-22.20
-23.27
-24.14
-24.73
-25.12
-25.60
-26.39
-27.66
-29.41
-31.58
-34.05
-36.65
-39.04
-40.69
-41.03
-39.55
-36.04
-30.67
-23.93
-16.50
-9.10
-2.34
3.34
7.71
10.81
12.83
14.13
15.08
16.07
17.38
19.19
21.59
24.53
27.82
31.17
34.17
36.47
37.84
38.33
38.17
37.70
37.20
36.77
36.31
35.61
34.51
33.09
31.65
30.60
30.27
30.64
31.40
32.04
32.15
31.64
30.78
30.11
30.12
31.11
33.06
35.81
39.15
42.97
47.15
51.47
55.45
58.39
59.55
58.34
54.56
48.45
40.66
32.03
23.39
15.44
8.61
3.03
-1.42
-5.11
-8.51
-12.06
-16.02
-20.41
-25.04
-29.51
-33.36
-36.08
-37.18
-36.32
-33.37
-28.57
-22.49
-15.95
-9.69
-4.26
0.18
3.80
6.84
9.52
11.92
14.03
15.78
17.11
18.08
18.76
19.21
19.52
19.69
19.67
19.43
18.93
18.20
17.33
16.39
15.42
14.34
13.05
11.47
9.67
7.85
6.22
4.95
4.02
3.21
2.32
1.19
-0.16
-1.57
-2.94
-4.26
-5.66
-7.29
-9.22
-11.30
-13.27
-14.86
-15.98
-16.82
-17.66
-18.85
-20.52
-22.60
-24.87
-27.16
-29.34
-31.46
-33.55
-35.63
-37.53
-39.02
-39.83
-39.82
-38.95
-37.29
-34.92
-31.88
-28.20
-23.86
-18.89
-13.49
-8.02
-3.01
1.02
3.70
5.00
5.20
4.91
4.74
5.10
6.00
7.01
7.49
6.84
4.81
1.57
-2.33
-6.17
-9.24
-11.03
-11.54
-11.43
-12.47
-17.44
-29.43
-50.38
-79.70
-113.64
-146.11
-170.76
-183.21
-182.42
-170.48
-151.03
-127.49
-101.86
-74.78
-46.24
-16.26
15.34
49.47
88.05
133.23
185.73
243.34
300.78
351.16
388.35
409.32
414.95
409.33
398.05
386.27
377.65
373.75
374.07
375.98
375.07
365.88
343.18
303.42
245.88
172.93
89.51
1.97
-83.25
-160.79
-227.16
-281.09
-323.19
-355.27
-379.36
-396.95
-408.67
-414.45
-414.03
-407.34
-394.59
-376.21
-352.85
-325.44
-295.37
-264.37
-234.32
-206.64
-182.11
-160.87
-142.72
-127.37
-114.61
-104.15
-95.46
-87.73
-80.02
-71.52
-61.80
-50.89
-39.20
-27.25
-15.32
-3.25
9.67
24.52
42.20
63.03
86.29
110.29
132.94
152.48
168.20
180.62
191.29
202.20
215.12
231.26
251.11
274.59
301.14
329.60
358.07
383.87
403.94
415.50
416.98
408.46
391.49
368.20
340.23
308.25
272.26
232.47
190.23
148.03
108.66
73.84
43.30
14.93
-14.08
-45.83
-80.81
-117.67
-153.51
-184.70
-207.73
-220.14
-221.37
-213.41
-200.49
-188.29
-182.62
-188.27
-208.14
-242.55
-288.50
-339.66
-387.04
-420.95
-433.74
-422.22
-388.36
-338.10
-278.69
-216.38
-155.52
-99.27
-50.68
-12.96
11.46
22.40
22.62
17.07
10.90
7.43
7.36
9.43
11.70
12.98
13.31
13.54
14.64
17.00
20.40
24.22
27.88
31.00
33.52
35.50
36.95
37.72
37.63
36.51
34.42
31.58
28.35
25.09
22.04
19.21
16.45
13.49
10.09
6.23
2.16
-1.67
-4.67
-6.37
-6.55
-5.33
-3.09
-0.37
2.32
4.57
6.14
7.06
7.48
7.70
7.94
8.38
9.00
9.62
10.04
10.08
9.70
8.98
8.07
7.16
6.42
6.01
6.06
6.63
7.67
9.01
10.31
11.16
11.23
10.34
8.57
6.21
3.61
1.07
-1.27
-3.40
-5.38
-7.25
-8.97
-10.41
-11.49
-12.16
-12.54
-12.79
-13.07
-13.42
-13.75
-13.90
-13.75
-13.34
-12.85
-12.62
-13.02
-14.29
-16.52
-19.55
-23.08
-26.66
-29.77
-31.93
-32.71
-31.93
-29.64
-26.28
-22.47
-18.91
-16.11
-14.24
-13.11
-12.29
-11.35
-10.04
-8.35
-6.42
-4.45
-2.54
-0.69
1.14
3.04
5.00
6.97
8.85
10.53
11.99
13.25
14.42
15.61
16.85
18.05
19.12
19.96
20.58
21.12
21.72
22.45
23.24
23.95
24.42
24.54
24.32
23.86
23.22
22.47
21.61
20.64
19.58
18.36
16.94
15.24
13.28
11.20
9.25
7.68
6.63
6.06
5.73
5.30
4.43
2.96
0.94
-1.45
-3.92
-6.27
-8.38
-10.25
-11.98
-13.75
-15.77
-18.26
-21.37
-25.00
-28.76
-31.97
-33.79
-33.53
-30.88
-26.12
-20.03
-13.62
-7.86
-3.37
-0.33
1.47
2.44
2.95
3.27
3.54
3.77
3.95
4.05
4.01
3.78
3.39
2.92
2.53
2.40
2.62
3.15
3.91
4.82
5.86
7.07
8.47
9.93
11.18
11.86
11.72
10.71
8.96
6.65
3.89
0.72
-2.81
-6.54
-10.09
-13.02
-15.00
-15.99
-16.30
-16.44
-16.95
-18.11
-19.92
-22.14
-24.42
-26.51
-28.31
-29.83
-31.12
-32.27
-33.32
-34.32
-35.38
-36.69
-38.38
-40.49
-42.71
-44.51
-45.16
-44.11
-41.17
-36.72
-31.54
-26.59
-22.58
-19.82
-18.20
-17.37
-16.94
-16.67
-16.42
-16.05
-15.37
-14.14
-12.11
-9.23
-5.68
-1.74
2.24
6.07
9.75
13.44
17.39
21.73
26.47
31.45
36.37
40.88
44.71
47.67
49.61
50.46
50.19
48.87
46.68
43.88
40.73
37.51
34.33
31.22
28.14
25.03
21.88
18.78
15.84
13.15
10.77
8.63
6.56
4.30
1.63
-1.57
-5.24
-9.15
-12.88
-15.91
-17.77
-18.12
-16.84
-14.09
-10.29
-6.00
-1.81
1.80
4.54
6.32
7.24
7.50
7.38
7.14
7.05
7.25
7.84
8.75
9.82
10.87
11.73
12.29
12.60
12.81
13.15
13.86
15.09
16.77
18.63
20.29
21.38
21.75
21.49
20.81
19.92
18.86
17.49
15.53
12.83
9.45
5.75
2.23
-0.68
-2.71
-3.92
-4.54
-4.91
-5.28
-5.78
-6.45
-7.32
-8.36
-9.51
-10.64
-11.50
-11.72
-10.92
-8.88
-5.57
-1.27
3.48
8.04
11.80
14.31
15.39
15.14
13.87
12.00
9.97
8.14
6.75
5.94
5.75
6.19
7.19
8.57
10.13
11.67
13.04
14.18
15.13
15.97
16.66
17.05
16.89
15.97
14.25
11.87
9.11
6.31
3.68
1.24
-1.10
-3.52
-6.13
-8.89
-11.67
-14.26
-16.54
-18.51
-20.32
-22.23
-24.45
-27.13
-30.16
-33.25
-35.91
-37.59
-37.81
-36.22
-32.75
-27.70
-21.64
-15.33
-9.50
-4.59
-0.62
2.78
6.14
9.83
13.69
17.09
19.18
19.46
18.36
17.28
18.16
22.52
30.68
41.44
52.60
62.00
68.38
71.94
73.83
75.18
76.39
76.96
75.84
71.98
64.50
52.61
35.79
14.23
-10.16
-33.21
-48.99
-51.56
-37.51
-7.72
32.40
74.62
110.60
134.35
143.35
138.18
121.28
95.73
64.65
31.03
-2.29
-32.84
-58.85
-79.57
-95.26
-106.81
-115.21
-121.13
-124.77
-125.99
-124.63
-120.70
-114.56
-106.87
-98.50
-90.40
-83.31
-77.69
-73.56
-70.56
-68.13
-65.75
-63.14
-60.31
-57.53
-55.11
-53.23
-51.72
-50.03
-47.32
-42.78
-35.93
-26.96
-16.72
-6.50
2.45
9.32
13.97
16.85
18.60
19.77
20.72
21.62
22.67
24.14
26.20
28.75
31.29
33.10
33.50
32.25
29.63
26.36
23.34
21.28
20.48
20.81
21.87
23.10
23.99
24.19
23.53
21.99
19.64
16.66
13.25
9.63
5.98
2.45
-0.85
-3.93
-6.78
-9.42
-11.80
-13.77
-15.09
-15.57
-15.06
-13.59
-11.34
-8.63
-5.82
-3.20
-0.93
0.93
2.42
3.61
4.57
5.34
5.96
6.48
6.99
7.57
8.29
9.16
10.16
11.19
12.19
13.12
14.00
14.87
15.73
16.51
17.11
17.39
17.31
16.90
16.25
15.50
14.74
14.00
13.28
12.52
11.70
10.82
9.90
8.96
8.01
7.07
6.14
5.24
4.42
3.73
3.17
2.68
2.17
1.56
0.82
0.02
-0.74
-1.35
-1.82
-2.19
-2.59
-3.11
-3.73
-4.41
-5.08
-5.67
-6.21
-6.76
-7.39
-8.18
-9.19
-10.41
-11.75
-13.05
-14.07
-14.56
-14.32
-13.23
-11.27
-8.49
-5.05
-1.17
2.91
6.92
10.68
14.08
17.13
19.89
22.41
24.69
26.70
28.37
29.71
30.73
31.54
32.28
33.08
33.99
35.04
36.12
37.12
37.91
38.36
38.36
37.85
36.79
35.15
32.93
30.18
27.02
23.62
20.18
16.93
13.95
11.29
8.81
6.40
3.93
1.38
-1.18
-3.62
-5.80
-7.68
-9.33
-10.91
-12.64
-14.66
-17.05
-19.73
-22.56
-25.35
-27.96
-30.28
-32.29
-33.99
-35.35
-36.32
-36.85
-36.96
-36.72
-36.26
-35.76
-35.29
-34.87
-34.42
-33.78
-32.76
-31.21
-29.01
-26.18
-22.78
-18.99
-15.00
-10.99
-7.06
-3.30
0.22
3.32
5.75
7.31
7.93
7.77
7.18
6.59
6.37
6.74
7.72
9.18
10.90
12.63
14.14
15.26
15.91
16.14
16.06
15.79
15.39
14.83
14.03
12.98
11.76
10.53
9.51
8.77
8.26
7.85
7.40
6.87
6.35
5.97
5.81
5.83
5.86
5.73
5.36
4.75
3.97
3.11
2.19
1.18
0.02
-1.25
-2.53
-3.67
-4.53
-5.07
-5.38
-5.65
-6.07
-6.72
-7.49
-8.11
-8.28
-7.73
-6.40
-4.34
-1.78
1.01
3.73
6.10
7.86
8.82
8.96
8.37
7.29
5.98
4.70
3.61
2.83
2.33
2.08
1.99
2.00
2.11
2.34
2.68
3.08
3.37
3.31
2.69
1.48
-0.20
-2.07
-3.88
-5.61
-7.43
-9.71
-12.84
-16.98
-22.01
-27.51
-32.88
-37.58
-41.38
-44.40
-47.21
-50.56
-55.16
-61.27
-68.63
-76.40
-83.56
-89.32
-93.54
-96.78
-100.12
-104.58
-110.53
-117.12
-122.02
-121.85
-113.00
-92.94
-61.29
-20.48
24.69
68.18
104.36
129.45
142.47
145.62
143.81
143.48
150.76
169.55
199.99
238.23
277.79
311.79
335.19
346.15
345.82
337.26
323.99
309.14
295.34
285.05
280.59
283.68
294.42
310.39
326.55
336.18
332.66
311.59
272.20
217.32
152.16
82.68
14.28
-48.52
-101.93
-142.90
-169.71
-182.86
-185.57
-183.13
-181.07
-182.99
-189.40
-198.25
-206.64
-212.53
-215.45
-215.96
-214.75
-211.99
-207.23
-200.15
-191.34
-182.48
-175.49
-171.20
-168.30
-163.51
-152.91
-133.35
-103.75
-65.62
-22.29
22.33
65.35
105.45
143.33
178.69
210.26
236.38
256.04
270.01
278.87
282.65
280.96
273.15
258.51
236.97
208.79
174.36
134.10
88.40
37.75
-17.19
-75.56
-136.09
-196.33
-252.56
-300.32
-335.61
-356.39
-363.25
-359.04
-347.64
-332.51
-315.49
-296.95
-276.67
-255.02
-233.55
-214.42
-199.27
-188.40
-180.56
-173.45
-164.89
-153.86
-140.97
-128.21
-117.89
-111.44
-108.87
-108.77
-108.74
-106.27
-99.37
-87.19
-70.20
-50.11
-29.46
-11.09
2.66
10.96
15.02
17.84
23.24
34.25
52.13
75.59
101.14
124.16
140.99
150.51
154.47
156.56
159.97
165.88
172.29
174.27
165.60
142.27
104.02
53.89
-3.50
-64.34
-125.18
-182.81
-234.22
-277.61
-311.93
-337.74
-357.12
-372.51
-385.71
-394.88
-395.06
-380.93
-350.22
-302.76
-240.12
-163.99
-75.31
24.44
134.52
253.35
380.46
504.35
606.93
671.36
691.30
680.65
653.81
621.21
588.06
554.80
516.30
470.14
416.46
357.48
295.55
230.16
159.54
81.54
-5.13
-99.73
-196.79
-287.18
-360.70
-409.74
-432.89
-433.54
-418.16
-393.92
-366.83
-339.52
-312.03
-283.22
-252.52
-221.27
-191.24
-163.75
-139.36
-118.13
-99.56
-83.20
-68.81
-56.47
-46.68
-39.53
-34.52
-30.82
-27.53
-23.77
-19.01
-13.10
-6.34
0.60
7.03
12.58
17.21
21.26
25.20
29.34
33.59
37.32
39.66
39.82
37.51
33.20
27.88
22.81
18.95
16.80
16.34
17.26
19.19
21.84
24.96
28.26
31.33
33.75
35.12
35.25
34.14
32.05
29.38
26.55
23.93
21.70
19.85
18.21
16.59
14.91
13.25
11.84
10.95
10.70
11.07
11.88
12.85
13.78
14.50
15.00
15.26
15.33
15.29
15.23
15.21
15.29
15.49
15.74
15.92
15.91
15.65
15.15
14.49
13.78
13.04
12.26
11.34
10.21
8.86
7.41
6.10
5.09
4.42
3.95
3.38
2.46
1.07
-0.75
-2.85
-5.12
-7.51
-9.94
-12.17
-13.73
-14.05
-12.66
-9.48
-4.99
-0.06
4.33
7.49
9.18
9.63
9.30
8.64
7.99
7.51
7.25
7.23
7.45
7.87
8.40
8.96
9.53
10.18
11.01
12.01
13.12
14.14
14.87
15.22
15.20
14.93
14.45
13.76
12.78
11.47
9.88
8.24
6.83
5.88
5.52
5.64
6.05
6.51
6.87
7.12
7.29
7.46
7.65
7.81
7.83
7.58
6.98
6.00
4.70
3.20
1.64
0.04
-1.60
-3.36
-5.34
-7.57
-10.02
-12.60
-15.20
-17.70
-19.97
-21.80
-22.96
-23.15
-22.19
-20.10
-17.10
-13.60
-10.08
-6.89
-4.20
-1.98
-0.05
1.75
3.50
5.15
6.62
7.79
8.68
9.35
9.91
10.40
10.84
11.16
11.30
11.23
10.94
10.45
9.81
9.07
8.32
7.65
7.11
6.65
6.24
5.80
5.35
5.01
4.96
5.32
6.14
7.33
8.70
10.09
11.34
12.36
13.14
13.67
14.05
14.41
14.98
15.91
17.27
18.99
20.84
22.63
24.23
25.64
26.94
28.24
29.63
31.05
32.39
33.43
33.92
33.53
31.95
29.00
24.71
19.34
13.37
7.23
1.22
-4.70
-10.84
-17.66
-25.48
-34.40
-44.21
-54.58
-65.11
-75.55
-85.57
-94.69
-102.07
-106.72
-107.77
-105.11
-99.66
-93.11
-87.23
-83.13
-80.77
-79.27
-77.60
-75.19
-72.16
-68.99
-65.88
-62.45
-57.94
-51.69
-43.86
-35.39
-27.58
-21.33
-16.73
-13.20
-9.92
-6.36
-2.57
1.10
4.31
6.90
9.01
10.79
12.24
13.09
12.97
11.65
9.19
6.01
2.65
-0.41
-3.03
-5.40
-7.96
-11.24
-15.60
-21.20
-27.94
-35.59
-43.84
-52.24
-60.24
-67.29
-73.19
-78.46
-84.45
-92.76
-104.28
-118.22
-132.11
-142.67
-147.19
-144.77
-136.52
-124.80
-112.06
-99.95
-89.12
-79.63
-71.57
-65.15
-60.51
-57.30
-54.67
-51.58
-47.48
-42.71
-38.20
-34.78
-32.10
-28.33
-20.49
-5.56
18.03
49.47
85.71
122.77
157.33
187.90
214.83
239.29
261.79
281.40
296.04
303.57
303.02
295.23
282.57
268.05
254.40
243.45
235.94
231.68
229.75
228.70
226.93
223.23
217.63
211.85
209.07
212.67
224.50
243.48
265.37
284.07
293.94
292.14
279.81
261.43
243.06
229.83
224.10
224.99
229.06
231.59
228.11
215.43
192.25
159.36
119.15
74.86
29.59
-14.36
-55.82
-94.61
-131.01
-165.37
-197.78
-228.09
-255.99
-280.85
-301.43
-315.69
-320.81
-313.83
-292.72
-257.52
-211.00
-158.64
-107.63
-65.23
-37.09
-25.76
-30.42
-47.04
-69.19
-89.60
-101.99
-103.27
-95.22
-84.73
-81.60
-94.44
-126.46
-173.02
-222.78
-262.05
-279.92
-271.73
-239.31
-188.92
-128.49
-65.49
-5.95
45.93
88.23
121.70
149.27
174.49
199.47
223.46
243.07
253.97
252.92
238.91
212.51
174.68
125.98
67.33
1.59
-65.40
-125.35
-169.97
-194.08
-197.52
-185.20
-164.77
-143.29
-124.61
-108.68
-92.74
-73.77
-50.65
-25.07
-0.86
17.56
26.87
25.74
14.72
-4.25
-28.65
-55.93
-83.66
-109.63
-131.83
-148.51
-158.27
-160.35
-154.87
-143.02
-126.98
-109.44
-93.02
-79.57
-69.87
-63.60
-59.76
-57.17
-54.95
-52.63
-50.00
-47.00
-43.43
-39.05
-33.64
-27.18
-19.97
-12.63
-5.92
-0.64
2.52
3.15
1.08
-3.37
-9.50
-16.23
-22.34
-26.79
-28.97
-28.82
-26.77
-23.47
-19.54
-15.41
-11.26
-7.07
-2.70
1.97
7.02
12.49
18.16
23.74
28.85
33.24
37.03
40.68
44.69
49.45
54.97
60.87
66.55
71.48
75.57
79.09
82.58
86.33
90.32
94.16
97.33
99.56
101.02
102.39
104.58
108.31
113.33
118.84
123.72
127.20
129.25
130.63
132.57
136.04
141.12
146.18
149.45
150.29
150.01
151.24
156.28
165.30
175.63
182.52
179.93
163.74
132.60
87.45
29.88
-38.55
-115.56
-196.42
-273.31
-338.00
-383.27
-405.79
-407.33
-394.10
-373.96
-353.56
-336.70
-315.24
-283.89
-241.77
-193.58
-146.75
-107.26
-76.83
-53.40
-33.14
-12.84
7.12
24.08
33.21
32.46
21.86
3.93
-16.97
-35.67
-47.91
-52.97
-52.55
-49.51
-45.92
-42.39
-36.98
-27.92
-13.95
4.91
26.39
47.37
65.21
78.70
88.00
94.38
99.08
103.10
106.67
108.68
107.70
103.01
94.79
83.78
71.01
56.90
42.49
29.14
17.96
9.85
5.92
6.23
9.41
12.98
13.31
8.89
0.09
-11.96
-25.92
-39.74
-51.95
-61.60
-67.73
-70.42
-67.04
-53.93
-28.26
11.42
66.38
135.83
216.47
302.21
383.04
451.25
501.97
533.47
535.20
502.79
439.73
357.48
283.71
225.30
180.45
144.67
109.63
71.41
30.58
-10.17
-47.04
-76.72
-99.26
-113.78
-119.84
-117.97
-108.63
-91.29
-66.13
-35.37
-4.24
18.06
23.86
8.29
-29.71
-86.44
-153.62
-220.74
-277.56
-316.52
-335.25
-334.88
-319.95
-297.20
-273.42
-253.69
-241.00
-236.12
-238.22
-245.69
-255.54
-264.48
-270.20
-272.04
-271.10
-269.51
-269.04
-270.11
-271.78
-272.12
-269.45
-263.02
-252.94
-239.78
-224.20
-206.99
-189.35
-172.57
-157.33
-142.63
-125.47
-101.47
-66.58
-18.87
40.68
108.78
181.36
254.87
326.42
393.08
450.88
494.83
520.19
524.45
508.61
477.12
436.20
391.50
346.42
301.76
256.79
210.72
163.71
116.99
72.11
30.20
-8.31
-43.57
-76.18
-106.79
-135.90
-163.62
-189.33
-211.47
-227.63
-234.87
-230.33
-211.77
-177.91
-128.56
-64.73
10.99
94.09
177.86
254.13
314.70
353.30
367.10
357.16
327.48
283.12
228.44
166.15
97.72
24.47
-51.06
-124.76
-191.53
-246.69
-287.36
-313.11
-325.65
-327.43
-320.61
-306.25
-284.55
-255.63
-220.42
-180.93
-139.87
-99.82
-62.44
-28.15
3.55
33.40
61.60
87.58
110.20
128.37
141.57
150.09
154.80
156.60
156.05
153.16
147.69
139.54
129.07
117.17
104.92
93.21
82.50
72.91
64.31
56.58
49.67
43.64
38.48
34.20
30.76
28.21
26.66
26.12
26.49
27.41
28.38
28.86
28.49
27.20
25.17
22.74
20.18
17.59
14.88
11.88
8.42
4.52
0.38
-3.63
-7.05
-9.42
-10.39
-9.82
-7.80
-4.64
-0.78
3.33
7.41
11.28
14.94
18.42
21.75
25.00
28.33
31.93
35.99
40.56
45.46
50.38
54.99
59.08
62.50
65.12
66.65
66.70
64.88
61.04
55.36
48.38
40.68
32.69
24.58
16.41
8.26
0.39
-6.71
-12.57
-16.92
-19.77
-21.32
-21.92
-21.85
-21.31
-20.41
-19.17
-17.51
-15.33
-12.46
-8.76
-4.29
0.64
5.40
9.16
11.26
11.70
11.36
11.94
15.22
22.10
31.79
41.76
48.45
48.52
40.18
23.97
2.82
-18.74
-35.92
-45.18
-45.54
-38.97
-29.78
-23.19
-23.45
-32.46
-49.43
-71.24
-93.78
-113.07
-126.07
-131.07
-127.93
-118.27
-105.22
-92.69
-83.62
-78.14
-72.83
-61.75
-39.28
-3.27
43.39
93.57
138.84
172.82
192.95
200.32
197.77
188.16
173.54
155.62
136.61
119.29
106.31
99.02
96.71
96.93
96.33
91.95
82.22
67.41
49.71
32.63
19.94
14.17
15.43
21.11
26.74
27.68
20.89
5.96
-14.61
-36.19
-53.14
-60.38
-55.01
-37.30
-11.08
17.19
40.12
51.59
48.01
28.46
-6.12
-54.08
-113.36
-181.22
-253.43
-324.11
-386.75
-435.79
-468.05
-483.24
-483.44
-471.78
-451.25
-424.01
-391.31
-353.75
-311.47
-264.14
-210.86
-150.50
-82.53
-8.16
69.04
143.28
207.70
256.33
285.84
296.59
292.17
278.00
259.58
241.07
224.68
210.87
198.72
186.28
170.95
149.98
121.41
84.79
41.52
-5.48
-52.60
-96.48
-134.64
-165.65
-189.13
-205.83
-217.43
-226.28
-234.22
-241.09
-243.86
-237.09
-214.87
-173.41
-112.92
-38.00
43.95
125.36
200.76
267.41
324.62
372.12
408.85
432.71
441.61
434.68
412.91
378.93
336.29
288.98
241.18
197.10
160.59
133.73
115.53
101.21
83.20
53.69
8.02
-53.45
-125.52
-200.46
-270.85
-331.74
-381.01
-418.25
-443.47
-456.22
-455.90
-442.66
-417.96
-384.85
-347.65
-311.11
-279.68
-256.62
-243.05
-237.19
-234.38
-228.45
-214.07
-189.06
-155.41
-118.18
-82.96
-53.33
-29.62
-9.68
9.21
28.37
47.37
64.81
79.91
93.29
106.63
121.59
138.54
156.24
172.36
184.56
191.48
193.17
190.85
186.31
181.10
176.00
170.86
164.87
157.15
147.15
135.04
121.65
108.05
95.19
83.58
73.22
63.84
55.15
47.12
40.08
34.55
31.03
29.73
30.41
32.46
35.07
37.47
39.26
40.42
41.29
42.36
43.97
46.14
48.57
50.87
52.85
54.57
56.45
59.04
62.72
67.54
73.09
78.75
83.75
87.56
89.91
90.86
90.69
89.79
88.46
86.75
84.17
79.56
70.94
55.77
31.29
-4.66
-52.80
-111.79
-178.12
-246.59
-311.14
-365.83
-405.69
-427.31
-429.14
-411.75
-377.72
-331.62
-279.64
-228.63
-184.38
-150.05
-125.30
-106.77
-89.75
-70.30
-46.92
-21.05
3.66
22.78
32.74
32.01
21.52
4.34
-15.18
-32.59
-44.64
-50.01
-49.45
-44.78
-37.41
-27.13
-12.17
9.60
38.91
73.72
109.37
139.90
160.40
168.94
167.04
158.51
147.48
136.55
126.26
115.85
104.69
93.29
83.15
75.62
70.80
67.09
61.86
52.78
39.12
22.03
4.10
-11.72
-23.21
-29.51
-31.19
-29.85
-27.62
-26.49
-27.80
-32.02
-38.70
-46.96
-56.02
-65.63
-76.04
-87.71
-100.77
-114.93
-129.66
-144.58
-159.91
-176.34
-194.61
-214.84
-236.14
-256.72
-274.49
-287.71
-295.36
-297.06
-292.70
-282.08
-264.86
-240.73
-209.58
-171.61
-127.45
-78.25
-25.86
27.20
77.90
123.18
160.50
188.37
206.62
216.35
219.81
220.01
220.27
223.47
231.24
243.42
258.10
272.37
283.66
290.90
294.97
298.14
302.77
310.08
319.55
329.16
336.34
338.85
335.41
325.61
309.86
289.24
265.56
241.20
218.44
198.59
181.17
163.86
143.42
117.24
84.72
47.66
9.50
-25.98
-56.09
-79.80
-97.59
-110.81
-120.88
-128.84
-135.09
-139.58
-142.04
-142.37
-140.90
-138.47
-136.06
-134.33
-133.34
-132.52
-131.07
-128.36
-124.21
-118.85
-112.60
-105.65
-97.95
-89.47
-80.32
-70.93
-61.91
-53.73
-46.69
-40.86
-36.14
-32.30
-29.10
-26.32
-23.95
-22.17
-20.75
-19.52
-18.28
-16.92
-15.50
-14.26
-13.50
-13.45
-14.30
-15.02
-14.58
-12.19
-7.81
-2.03
4.45
11.40
19.32
29.22
43.89
65.25
94.06
129.32
168.54
208.74
247.04
280.91
308.12
329.21
345.32
358.63
371.10
383.75
396.52
408.44
418.39
412.34
381.85
325.03
249.24
167.32
90.98
26.56
-25.62
-68.32
-105.31
-134.70
-157.89
-175.49
-187.81
-195.42
-198.72
-198.69
-196.63
-194.87
-194.57
-196.62
-201.50
-209.49
-220.46
-232.96
-245.03
-250.96
-246.04
-227.53
-197.32
-160.60
-123.43
-92.91
-69.95
-53.77
-43.23
-38.18
-38.57
-43.24
-50.47
-57.66
-62.07
-61.42
-55.55
-46.08
-36.06
-28.16
-23.88
-23.15
-24.88
-27.93
-31.52
-35.63
-39.98
-43.69
-45.09
-42.61
-35.81
-25.69
-14.33
-3.78
4.47
10.05
13.23
14.47
13.83
10.66
4.30
-5.36
-17.52
-30.75
-43.72
-55.61
-66.19
-75.77
-85.06
-94.69
-104.97
-115.79
-126.63
-136.96
-145.79
-151.13
-150.10
-139.89
-119.11
-88.81
-52.79
-16.22
15.84
38.66
50.03
51.09
44.99
34.98
23.32
11.77
4.21
3.60
12.39
31.59
60.04
94.76
132.28
170.20
204.10
231.33
249.61
257.11
252.93
237.59
213.31
183.63
152.54
123.31
98.21
77.64
60.62
45.76
31.99
18.77
6.27
-4.93
-14.24
-21.03
-25.29
-27.47
-28.12
-27.66
-26.24
-23.78
-20.24
-15.86
-11.04
-6.57
-3.28
-1.58
-1.32
-1.83
-2.11
-1.30
1.12
5.27
10.65
16.16
20.14
20.53
15.49
4.15
-12.72
-32.63
-51.84
-66.66
-74.56
-74.79
-68.23
-56.75
-42.34
-26.66
-10.94
3.81
16.67
26.81
33.72
37.35
38.18
37.02
34.80
32.26
29.77
27.37
24.74
21.58
17.72
13.37
9.03
5.20
2.18
-0.14
-2.19
-4.51
-7.35
-10.57
-13.53
-15.28
-14.96
-12.11
-6.95
-0.26
6.89
13.53
19.13
23.69
27.55
31.15
34.73
38.35
41.89
45.32
48.77
52.59
57.13
62.57
68.81
75.44
81.93
87.77
92.51
95.72
96.95
95.77
91.92
85.56
77.35
68.37
59.76
52.45
46.89
43.00
40.19
37.57
34.07
28.71
20.81
10.21
-2.62
-16.61
-30.48
-43.11
-53.87
-62.63
-69.63
-75.31
-80.21
-85.02
-90.50
-97.33
-105.84
-115.66
-125.69
-134.35
-140.13
-142.13
-140.39
-135.82
-129.72
-123.21
-116.68
-109.64
-100.96
-89.42
-74.32
-55.80
-34.80
-12.67
9.35
30.51
50.39
68.71
84.96
98.43
108.44
114.76
117.79
118.53
118.20
117.92
118.68
121.29
126.35
133.90
142.98
151.33
155.56
152.12
138.65
115.21
84.74
52.26
23.25
1.83
-10.66
-15.81
-17.39
-19.87
-26.86
-40.05
-58.94
-81.32
-104.35
-125.79
-144.66
-161.20
-176.21
-190.01
-201.98
-210.84
-215.41
-215.51
-212.17
-207.06
-201.58
-196.03
-189.63
-181.18
-170.31
-158.22
-147.53
-141.28
-141.36
-147.46
-157.05
-166.30
-171.68
-171.16
-164.73
-153.88
-140.55
-126.10
-110.80
-93.95
-74.45
-51.35
-24.37
6.03
38.57
71.37
102.30
129.36
150.99
166.12
174.18
175.10
169.31
157.95
142.82
126.24
110.44
96.99
86.30
77.63
69.62
61.20
52.33
44.26
38.97
38.36
43.25
53.07
65.87
79.03
89.98
96.74
98.22
94.25
85.49
73.15
58.79
43.81
28.99
14.45
-0.26
-15.66
-31.90
-48.53
-64.46
-78.05
-87.43
-90.87
-87.36
-77.17
-62.09
-45.11
-29.49
-17.69
-10.58
-7.27
-5.82
-4.35
-1.92
1.03
3.05
2.35
-2.24
-10.66
-21.22
-31.03
-36.75
-35.79
-27.27
-12.44
5.73
23.58
38.00
47.39
51.71
51.83
48.63
42.34
32.55
18.79
1.25
-18.66
-38.66
-56.22
-69.47
-77.56
-80.65
-79.39
-74.33
-65.78
-53.88
-38.93
-21.95
-4.98
8.91
16.32
14.84
4.42
-12.13
-29.65
-42.49
-46.65
-41.12
-27.80
-10.23
8.22
25.50
40.98
54.56
66.04
74.71
79.83
81.30
79.91
77.15
74.67
73.66
74.66
77.68
82.41
88.62
96.08
104.51
113.28
121.09
126.04
125.99
119.20
105.30
85.68
63.22
41.42
23.16
9.91
1.59
-2.97
-5.26
-6.76
-8.82
-12.84
-20.29
-32.13
-48.24
-67.11
-86.37
-103.73
-117.79
-127.91
-133.60
-133.75
-126.79
-111.57
-88.65
-60.88
-32.77
-8.83
8.26
18.55
24.34
28.68
33.68
39.73
45.77
50.23
51.94
50.55
46.35
39.97
32.13
23.48
14.69
6.36
-1.22
-8.28
-15.48
-23.45
-32.26
-41.23
-49.13
-54.78
-57.69
-58.22
-57.28
-55.83
-54.46
-53.23
-51.92
-50.40
-48.86
-48.10
-49.37
-53.98
-62.69
-75.21
-90.06
-105.11
-118.49
-129.34
-137.79
-144.07
-147.29
-144.80
-133.09
-109.44
-73.85
-29.78
16.74
59.17
92.58
114.76
126.16
128.83
125.42
118.28
109.35
100.04
91.45
84.52
79.94
78.25
79.66
83.80
89.48
94.69
97.05
94.57
86.41
73.29
57.38
41.86
30.14
25.01
27.84
38.11
53.37
69.89
83.74
91.98
93.42
88.70
79.67
68.55
57.31
47.36
39.70
34.99
33.54
35.01
38.19
41.27
42.20
39.53
32.91
23.33
12.69
3.28
-2.92
-4.63
-1.54
5.61
15.04
24.22
30.40
31.35
26.07
15.13
0.35
-15.93
-31.74
-46.04
-58.67
-69.87
-79.76
-88.05
-94.25
-98.09
-99.83
-100.26
-100.49
-101.43
-103.46
-106.30
-109.25
-111.60
-113.01
-113.60
-113.87
-114.41
-115.71
-117.92
-120.92
-124.27
-127.36
-129.56
-130.21
-128.79
-124.83
-118.04
-108.42
-96.47
-83.19
-69.90
-57.96
-48.22
-40.84
-35.33
-30.80
-26.48
-21.92
-17.07
-12.06
-7.00
-1.89
3.29
8.50
13.51
18.01
21.75
24.67
26.91
28.67
30.19
31.60
32.86
33.83
34.29
34.04
32.98
31.15
28.79
26.25
23.87
21.89
20.40
19.23
18.14
16.86
15.26
13.43
11.68
10.38
9.90
10.50
12.20
14.74
17.56
19.90
21.01
20.39
17.92
13.93
9.03
3.88
-1.09
-5.72
-10.10
-14.42
-18.86
-23.54
-28.53
-33.79
-39.10
-43.95
-47.55
-49.03
-47.68
-43.31
-36.33
-27.64
-18.40
-9.65
-1.99
4.44
9.88
14.65
18.99
22.84
25.98
28.21
29.54
30.31
31.05
32.25
34.18
36.92
40.35
44.31
48.65
53.06
57.17
60.48
62.64
63.54
63.38
62.55
61.36
59.95
58.26
56.22
54.02
52.08
51.01
51.19
52.72
55.32
58.46
61.44
63.52
64.06
62.79
59.88
56.07
52.47
50.22
50.03
51.91
55.14
58.60
61.24
62.43
62.09
60.49
57.89
54.41
49.95
44.41
37.89
30.80
23.73
17.24
11.57
6.63
2.05
-2.50
-7.15
-11.77
-15.98
-19.48
-22.11
-23.93
-25.15
-25.96
-26.51
-26.80
-26.88
-26.86
-26.98
-27.51
-28.66
-30.39
-32.48
-34.56
-36.23
-37.22
-37.32
-36.46
-34.63
-31.89
-28.46
-24.62
-20.78
-17.24
-14.21
-11.71
-9.66
-7.90
-6.34
-4.96
-3.76
-2.75
-1.85
-0.99
-0.05
1.03
2.27
3.63
5.08
6.59
8.24
10.00
11.82
13.59
15.12
16.25
16.94
17.21
17.15
16.86
16.36
15.50
14.02
11.67
8.33
4.14
-0.44
-4.83
-8.49
-11.19
-13.08
-14.62
-16.40
-18.89
-22.24
-26.26
-30.41
-33.98
-36.23
-36.55
-34.66
-30.69
-25.09
-18.54
-11.74
-5.20
0.82
6.29
11.30
15.96
20.27
24.12
27.31
29.70
31.29
32.24
32.91
33.69
34.87
36.55
38.53
40.47
42.05
43.14
43.89
44.68
45.95
47.95
50.63
53.52
55.92
57.15
56.92
55.75
54.99
56.68
62.93
75.03
92.64
113.48
133.77
149.42
157.49
157.26
150.44
140.44
130.92
124.38
121.24
119.77
116.60
107.64
89.30
59.55
19.23
-27.49
-73.45
-110.12
-130.14
-129.86
-111.01
-80.53
-48.53
-25.04
-16.85
-25.58
-47.76
-76.39
-103.34
-121.57
-126.54
-116.76
-93.53
-60.27
-21.73
16.79
50.28
74.83
88.38
90.98
84.67
72.65
58.26
44.11
31.62
20.99
11.62
2.72
-6.17
-14.91
-22.81
-28.96
-32.66
-33.70
-32.53
-30.10
-27.58
-25.90
-25.59
-26.62
-28.57
-30.82
-32.80
-34.14
-34.65
-34.32
-33.24
-31.63
-29.78
-27.98
-26.52
-25.54
-25.05
-24.99
-25.20
-25.45
-25.59
-25.55
-25.39
-25.28
-25.47
-26.18
-27.52
-29.43
-31.67
-33.98
-36.08
-37.90
-39.47
-41.00
-42.71
-44.78
-47.24
-49.91
-52.44
-54.41
-55.34
-54.86
-52.77
-49.05
-43.97
-37.99
-31.70
-25.69
-20.47
-16.42
-13.69
-12.16
-11.41
-10.79
-9.52
-6.81
-2.12
4.72
13.26
22.40
30.50
35.75
36.82
33.48
26.92
19.65
14.71
14.57
20.13
30.28
42.38
53.28
60.40
62.53
59.88
53.62
45.30
36.36
27.96
20.75
15.01
10.35
5.99
0.98
-5.28
-12.60
-20.02
-26.28
-30.56
-32.88
-34.32
-36.12
-38.97
-42.72
-46.55
-49.59
-51.55
-52.93
-54.35
-56.79
-60.24
-64.01
-67.12
-68.92
-69.37
-69.06
-68.79
-68.69
-69.68
-71.67
-74.16
-76.35
-77.27
-75.96
-71.88
-65.13
-55.58
-45.33
-35.30
-25.78
-16.24
-5.61
7.22
23.03
42.06
65.13
90.10
115.49
139.41
159.89
175.49
185.73
191.19
185.50
178.40
168.30
154.08
134.76
110.60
83.71
57.51
35.33
19.04
9.52
3.59
-1.23
-6.59
-12.59
-17.88
-20.28
-17.70
-9.08
5.98
24.13
41.40
53.18
55.53
46.49
26.85
-0.14
-29.84
-57.15
-79.29
-94.45
-102.11
-102.55
-96.59
-85.62
-71.78
-57.69
-45.61
-37.50
-33.75
-33.79
-36.82
-42.60
-51.46
-63.64
-78.19
-92.22
-101.65
-102.29
-91.52
-69.36
-38.34
-2.60
33.11
64.18
86.61
97.32
94.70
79.26
53.88
23.43
-6.30
-30.01
-44.16
-47.56
-41.36
-28.43
-12.34
3.74
18.04
30.42
41.86
53.13
63.59
70.79
71.42
63.03
45.64
22.21
-2.29
-22.79
-35.81
-40.19
-36.62
-26.62
-11.53
7.59
29.40
51.69
71.21
84.36
88.40
82.48
68.04
48.27
27.00
7.46
-8.38
-19.80
-26.78
-29.49
-27.97
-22.57
-14.32
-5.32
1.47
3.03
-2.67
-15.78
-34.49
-55.57
-75.49
-91.66
-103.07
-110.20
-114.30
-116.44
-116.94
-115.35
-110.95
-103.30
-92.57
-79.35
-64.40
-48.25
-31.29
-13.87
3.46
19.97
34.91
47.78
58.47
67.22
74.46
80.60
86.06
91.26
96.61
102.32
108.17
113.40
116.99
118.20
116.97
114.06
110.53
107.06
103.46
98.72
91.55
81.14
67.56
51.72
34.84
17.84
1.10
-15.41
-31.76
-47.73
-62.77
-76.18
-87.37
-96.14
-102.58
-107.04
-109.93
-111.58
-112.18
-111.85
-110.66
-108.67
-106.01
-102.93
-99.72
-96.71
-94.18
-92.20
-90.67
-89.34
-87.89
-86.12
-83.95
-81.51
-79.00
-76.62
-74.47
-72.59
-71.01
-69.78
-68.93
-68.36
-67.62
-65.98
-62.63
-56.97
-48.96
-39.17
-28.63
-18.46
-9.50
-2.09
3.85
8.67
12.76
16.34
19.53
22.39
24.98
27.41
29.84
32.38
35.10
37.91
40.61
42.91
44.57
45.45
45.55
44.97
43.71
41.72
38.85
35.10
30.66
26.03
21.80
18.51
16.47
15.66
15.89
16.83
18.18
19.63
20.91
21.82
22.22
22.14
21.68
21.06
20.39
19.74
19.10
18.39
17.60
16.65
15.47
13.97
12.07
9.75
7.16
4.48
1.95
-0.20
-1.90
-3.09
-3.86
-4.38
-4.89
-5.69
-7.01
-8.94
-11.31
-13.69
-15.40
-15.75
-14.17
-10.41
-4.62
2.63
10.48
17.94
24.14
28.52
31.02
31.95
31.86
31.30
30.59
29.87
29.10
28.28
27.46
26.82
26.53
26.75
27.49
28.67
30.15
31.73
33.19
34.31
34.91
34.95
34.52
33.78
32.94
32.11
31.36
30.72
30.19
29.76
29.42
29.13
28.79
28.23
27.37
26.19
24.82
23.40
22.09
20.91
19.76
18.51
17.07
15.51
13.94
12.49
11.10
9.58
7.59
4.82
1.05
-3.68
-9.24
-15.38
-21.82
-28.34
-34.72
-40.78
-46.39
-51.50
-56.19
-60.66
-65.13
-69.60
-73.83
-77.25
-79.24
-79.34
-77.53
-74.25
-70.22
-66.12
-62.25
-58.48
-54.30
-49.16
-42.76
-35.20
-26.87
-18.16
-9.19
0.34
10.97
23.20
37.26
52.91
69.54
86.33
102.34
116.59
127.96
135.35
137.84
135.02
127.28
115.76
102.15
88.13
74.96
63.27
53.08
44.04
35.76
27.95
20.60
13.86
8.00
3.22
-0.45
-3.19
-5.42
-7.67
-10.47
-14.22
-19.04
-24.82
-31.16
-37.45
-43.02
-47.16
-49.36
-49.44
-47.58
-44.27
-40.15
-35.70
-31.11
-26.34
-21.21
-15.58
-9.46
-2.97
3.70
10.33
16.65
22.28
26.89
30.32
32.89
35.42
39.08
44.96
53.67
65.06
78.25
91.99
105.08
116.70
126.54
134.78
141.84
148.21
154.25
160.24
166.40
172.89
179.89
187.45
195.44
203.45
210.92
217.38
222.65
226.87
230.33
233.05
234.37
232.93
227.11
215.58
198.07
175.56
150.13
124.22
99.88
78.15
58.93
41.22
23.58
4.67
-16.54
-40.56
-67.14
-95.12
-122.34
-146.04
-163.72
-174.25
-178.51
-179.32
-180.37
-184.91
-194.63
-209.29
-227.13
-245.70
-262.56
-275.73
-283.88
-286.58
-284.47
-279.34
-273.85
-270.77
-272.00
-277.96
-287.52
-298.52
-308.58
-315.74
-318.90
-317.76
-312.74
-304.67
-294.63
-283.66
-272.43
-260.95
-248.42
-233.40
-214.42
-190.69
-162.64
-131.99
-101.30
-73.22
-49.72
-31.63
-18.68
-9.75
-3.35
2.04
7.65
14.28
22.21
31.35
41.33
51.87
62.91
74.66
87.67
102.86
121.36
144.18
171.56
202.16
232.70
258.48
274.79
278.63
269.95
251.61
228.12
203.77
181.22
161.19
143.23
126.77
111.83
98.92
88.40
79.98
72.67
65.32
57.19
48.31
39.30
31.10
24.34
19.18
15.28
11.99
8.64
4.73
0.13
-5.07
-10.62
-16.36
-22.23
-28.31
-34.57
-40.70
-46.06
-49.74
-50.94
-49.27
-44.99
-38.98
-32.47
-26.65
-22.34
-19.87
-19.04
-19.32
-20.06
-20.72
-20.84
-20.08
-18.19
-15.02
-10.63
-5.36
0.17
5.14
8.74
10.50
10.42
9.04
7.25
5.98
5.87
7.08
9.24
11.65
13.65
14.85
15.23
15.13
14.98
15.04
15.37
15.80
16.13
16.20
15.94
15.35
14.41
13.05
11.25
9.10
6.78
4.63
2.94
1.83
1.17
0.55
-0.60
-2.85
-6.45
-11.30
-16.86
-22.41
-27.22
-30.93
-33.50
-35.29
-36.76
-38.34
-40.32
-42.80
-45.85
-49.43
-53.46
-57.60
-61.25
-63.58
-63.80
-61.48
-56.71
-50.09
-42.41
-34.28
-25.89
-17.10
-7.82
1.75
10.97
19.04
25.41
30.10
33.65
36.80
40.03
43.36
46.48
49.01
50.93
52.55
54.29
56.32
58.35
59.74
59.91
58.62
56.25
53.43
50.85
48.83
47.35
46.15
45.09
44.21
43.73
43.78
44.15
44.25
43.26
40.58
36.17
30.69
25.38
21.49
19.78
20.22
22.01
24.11
25.74
26.73
27.37
28.10
28.99
29.63
29.25
27.15
23.04
17.05
9.70
1.62
-6.40
-13.48
-18.60
-20.85
-19.68
-15.17
-8.06
0.54
9.53
18.15
25.95
32.61
37.77
40.93
41.69
39.89
35.78
29.95
23.06
15.62
7.97
0.23
-7.44
-14.81
-21.48
-26.97
-30.90
-33.10
-33.83
-33.60
-33.00
-32.48
-32.09
-31.57
-30.57
-28.88
-26.56
-23.84
-20.91
-17.79
-14.36
-10.49
-6.25
-1.86
2.33
6.02
8.98
10.96
11.73
10.99
8.62
4.76
-0.14
-5.48
-10.68
-15.38
-19.42
-22.83
-25.68
-28.04
-30.03
-31.76
-33.33
-34.77
-36.01
-36.99
-37.76
-38.53
-39.61
-41.26
-43.60
-46.47
-49.46
-51.97
-53.30
-52.84
-50.12
-45.04
-37.95
-29.60
-20.95
-12.95
-6.21
-0.94
3.03
6.02
8.36
10.26
11.83
13.17
14.35
15.44
16.46
17.35
18.02
18.43
18.59
18.54
18.35
18.00
17.39
16.43
15.03
13.15
10.84
8.15
5.17
2.03
-1.13
-4.15
-6.91
-9.35
-11.40
-12.99
-14.00
-14.35
-14.04
-13.22
-12.15
-11.07
-10.11
-9.31
-8.64
-8.05
-7.65
-7.55
-7.87
-8.58
-9.55
-10.58
-11.53
-12.40
-13.32
-14.50
-16.13
-18.26
-20.74
-23.27
-25.40
-26.62
-26.53
-24.86
-21.64
-17.17
-11.98
-6.69
-1.90
1.96
4.67
6.22
6.81
6.79
6.55
6.54
7.05
8.25
10.12
12.47
15.05
17.62
19.97
21.99
23.62
24.84
25.63
26.00
25.96
25.54
24.86
24.08
23.36
22.87
22.69
22.83
23.30
24.08
25.17
26.55
28.17
29.92
31.70
33.43
35.12
36.82
38.50
39.93
40.76
40.58
39.20
36.78
33.78
30.74
28.00
25.48
22.84
19.65
15.72
11.13
6.16
1.06
-3.97
-8.82
-13.29
-17.06
-19.77
-21.30
-21.81
-21.72
-21.41
-20.99
-20.12
-18.14
-14.46
-8.81
-1.39
7.19
16.30
25.45
34.50
43.54
52.67
61.84
70.68
78.63
85.12
89.74
92.34
93.00
91.94
89.43
85.82
81.55
77.20
73.38
70.58
68.94
68.29
68.10
67.78
66.81
64.97
62.27
58.94
55.31
51.65
48.07
44.53
40.78
36.53
31.50
25.63
19.09
12.21
5.44
-0.80
-6.13
-10.26
-13.01
-14.39
-14.61
-14.21
-13.82
-14.06
-15.33
-17.67
-20.90
-24.69
-28.81
-33.20
-37.89
-42.97
-48.40
-53.97
-59.35
-64.14
-67.98
-70.66
-72.17
-72.70
-72.52
-71.80
-70.56
-68.59
-65.56
-61.25
-55.63
-48.95
-41.78
-34.78
-28.57
-23.53
-19.71
-16.86
-14.59
-12.48
-10.26
-7.84
-5.23
-2.58
0.03
2.51
4.83
6.96
8.82
10.42
11.70
12.70
13.47
14.13
14.78
15.45
16.05
16.36
16.11
15.14
13.46
11.31
9.04
6.94
5.19
3.75
2.52
1.41
0.46
-0.18
-0.34
0.10
1.06
2.26
3.32
3.86
3.62
2.55
0.75
-1.54
-4.05
-6.53
-8.79
-10.86
-12.97
-15.60
-19.27
-24.27
-30.48
-37.23
-43.55
-48.37
-50.78
-50.19
-46.41
-39.70
-30.85
-21.09
-11.86
-4.40
0.61
3.14
3.64
2.66
0.57
-2.54
-6.54
-11.14
-15.76
-19.75
-22.68
-24.58
-25.81
-26.92
-28.39
-30.49
-33.19
-36.32
-39.59
-42.70
-45.43
-47.66
-49.33
-50.48
-51.11
-51.19
-50.73
-49.81
-48.66
-47.61
-46.96
-46.84
-47.13
-47.52
-47.66
-47.32
-46.44
-45.18
-43.77
-42.46
-41.44
-40.88
-40.84
-41.34
-42.12
-42.69
-42.38
-40.52
-36.78
-31.31
-24.77
-18.05
-11.99
-7.06
-3.28
-0.38
2.04
4.36
6.73
9.14
11.45
13.45
14.98
15.93
16.37
16.55
16.84
17.60
18.96
20.77
22.58
23.87
24.25
23.64
22.25
20.41
18.40
16.39
14.45
12.67
11.21
10.20
9.62
9.26
8.72
7.67
6.00
3.89
1.70
-0.21
-1.66
-2.71
-3.61
-4.63
-5.91
-7.45
-9.06
-10.58
-12.00
-13.46
-15.21
-17.42
-20.06
-22.91
-25.62
-27.88
-29.54
-30.63
-31.38
-32.08
-33.07
-34.64
-36.99
-40.13
-43.79
-47.32
-49.85
-50.47
-48.62
-44.20
-37.72
-30.16
-22.65
-16.17
-11.27
-7.96
-5.86
-4.37
-2.92
-1.17
0.93
3.27
5.65
7.97
10.24
12.61
15.18
17.95
20.69
23.06
24.70
25.38
25.12
24.16
22.77
21.21
19.51
17.61
15.46
13.16
10.95
9.05
7.48
5.98
4.02
1.06
-3.20
-8.62
-14.61
-20.36
-25.04
-28.13
-29.49
-29.32
-27.98
-25.78
-23.00
-19.78
-16.41
-13.25
-10.75
-9.23
-8.81
-9.37
-10.69
-12.60
-15.01
-17.80
-20.64
-22.92
-23.85
-22.73
-19.26
-13.66
-6.69
0.66
7.43
12.94
16.93
19.51
21.00
21.84
22.40
22.98
23.81
25.01
26.59
28.51
30.63
32.80
34.89
36.88
38.81
40.77
42.87
45.07
47.23
49.08
50.30
50.61
49.85
48.04
45.42
42.31
39.05
35.98
33.26
30.95
29.00
27.36
25.89
24.48
23.07
21.58
19.98
18.26
16.42
14.48
12.49
10.46
8.40
6.23
3.79
0.95
-2.34
-5.98
-9.66
-13.09
-16.02
-18.47
-20.68
-23.03
-25.82
-29.05
-32.36
-35.10
-36.49
-35.95
-33.15
-28.17
-21.37
-13.31
-4.79
3.29
10.01
14.65
16.94
17.10
15.86
14.14
12.76
12.13
12.17
12.49
12.65
12.40
11.70
10.72
9.62
8.52
7.39
6.19
4.86
3.45
2.11
0.96
0.04
-0.77
-1.79
-3.34
-5.58
-8.42
-11.53
-14.43
-16.70
-18.06
-18.47
-17.96
-16.61
-14.66
-12.49
-10.63
-9.65
-9.87
-11.25
-13.33
-15.49
-17.15
-18.01
-18.04
-17.42
-16.47
-15.53
-14.88
-14.73
-15.16
-16.02
-17.05
-17.87
-18.19
-17.89
-17.07
-16.01
-15.11
-14.76
-15.24
-16.52
-18.18
-19.40
-19.27
-17.07
-12.59
-6.22
1.23
8.85
15.94
22.17
27.57
32.28
36.46
40.13
43.32
46.11
48.73
51.47
54.51
57.76
60.75
62.80
63.35
62.26
59.92
57.17
54.91
53.79
53.96
55.13
56.73
58.21
59.19
59.56
59.39
58.85
58.09
57.24
56.49
56.03
56.07
56.74
58.00
59.59
61.07
61.96
61.77
60.19
57.09
52.55
46.81
40.25
33.29
26.33
19.65
13.49
8.08
3.72
0.73
-0.69
-0.70
0.16
0.95
0.70
-1.32
-5.37
-11.15
-18.00
-25.12
-31.78
-37.39
-41.51
-43.85
-44.29
-42.97
-40.20
-36.43
-32.11
-27.53
-22.82
-18.02
-13.19
-8.45
-4.00
0.01
3.56
6.73
9.66
12.44
15.05
17.41
19.52
21.41
23.21
25.04
26.93
28.80
30.48
31.78
32.47
32.42
31.48
29.55
26.62
22.77
18.30
13.51
8.73
4.22
0.10
-3.65
-7.06
-10.16
-12.96
-15.48
-17.76
-19.94
-22.23
-24.86
-27.95
-31.49
-35.27
-39.07
-42.61
-45.73
-48.37
-50.53
-52.15
-53.17
-53.53
-53.28
-52.58
-51.75
-51.09
-50.77
-50.65
-50.25
-48.91
-45.94
-41.02
-34.27
-26.29
-17.91
-9.88
-2.71
3.40
8.41
12.27
14.95
16.44
16.85
16.51
15.85
15.37
15.40
16.14
17.59
19.63
22.04
24.51
26.67
28.19
28.86
28.63
27.60
25.97
23.92
21.53
18.82
15.72
12.21
8.32
4.20
0.09
-3.90
-7.72
-11.52
-15.56
-20.02
-24.85
-29.79
-34.39
-38.24
-41.13
-43.05
-44.19
-44.74
-44.91
-44.80
-44.58
-44.39
-44.47
-45.04
-46.16
-47.70
-49.25
-50.23
-50.01
-48.16
-44.56
-39.45
-33.35
-26.91
-20.72
-15.21
-10.56
-6.76
-3.66
-1.05
1.25
3.44
5.75
8.32
11.29
14.60
17.97
20.91
22.84
23.35
22.39
20.39
18.07
16.17
15.16
15.04
15.50
16.13
16.63
16.99
17.41
18.10
19.18
20.54
21.93
23.06
23.79
24.08
24.07
23.90
23.64
23.26
22.64
21.60
19.98
17.68
14.64
10.89
6.63
2.19
-2.08
-5.86
-8.98
-11.38
-13.10
-14.16
-14.58
-14.47
-14.13
-13.93
-14.29
-15.36
-16.90
-18.31
-18.86
-17.88
-15.03
-10.31
-4.04
3.25
10.96
18.47
25.23
30.85
35.15
38.12
39.90
40.61
40.27
38.82
36.08
31.96
26.50
19.85
12.34
4.38
-3.61
-11.26
-18.34
-24.76
-30.62
-36.12
-41.44
-46.71
-51.94
-57.02
-61.76
-65.97
-69.50
-72.24
-74.11
-75.10
-75.27
-74.73
-73.67
-72.25
-70.56
-68.63
-66.41
-63.84
-60.96
-57.86
-54.68
-51.54
-48.43
-45.29
-42.06
-38.76
-35.51
-32.50
-29.92
-27.84
-26.22
-24.86
-23.57
-22.23
-20.88
-19.72
-19.00
-18.97
-19.70
-21.08
-22.75
-24.25
-25.07
-24.80
-23.15
-20.07
-15.61
-9.98
-3.55
3.23
9.83
15.77
20.71
24.53
27.31
29.31
30.88
32.27
33.63
35.00
36.34
37.62
38.85
40.02
41.18
42.32
43.42
44.48
45.47
46.36
47.11
47.62
47.81
47.59
46.86
45.61
43.89
41.85
39.68
37.60
35.82
34.45
33.48
32.83
32.29
31.64
30.74
29.43
27.73
25.71
23.54
21.42
19.46
17.65
15.88
13.95
11.72
9.17
6.51
4.00
1.92
0.30
-1.00
-2.40
-4.37
-7.29
-11.35
-16.47
-22.28
-28.17
-33.35
-37.00
-38.44
-37.38
-34.03
-29.06
-23.42
-18.05
-13.60
-10.31
-8.12
-6.74
-5.89
-5.41
-5.20
-5.22
-5.37
-5.49
-5.37
-4.85
-3.87
-2.53
-1.01
0.56
2.12
3.77
5.66
7.89
10.37
12.83
14.95
16.54
17.65
18.47
19.26
20.15
21.01
21.45
21.03
19.40
16.50
12.68
8.58
4.90
2.20
0.75
0.45
1.04
2.21
3.71
5.39
7.07
8.53
9.40
9.34
8.13
5.82
2.71
-0.74
-4.07
-6.98
-9.40
-11.50
-13.54
-15.78
-18.28
-20.96
-23.48
-25.38
-26.21
-25.57
-23.28
-19.41
-14.31
-8.50
-2.59
2.91
7.61
11.37
14.18
16.15
17.45
18.28
18.84
19.32
19.88
20.58
21.41
22.28
23.05
23.63
23.94
24.02
23.96
23.84
23.78
23.81
23.93
24.03
24.00
23.71
23.10
22.18
21.03
19.72
18.31
16.86
15.42
14.09
12.95
12.05
11.34
10.70
9.95
8.95
7.63
6.00
4.11
2.05
-0.16
-2.46
-4.80
-7.08
-9.16
-10.92
-12.20
-12.87
-12.79
-11.86
-10.09
-7.61
-4.70
-1.69
1.09
3.44
5.31
6.76
7.89
8.76
9.37
9.71
9.84
9.91
10.12
10.61
11.34
12.15
12.77
13.04
12.89
12.47
11.90
11.29
10.62
9.89
9.21
8.90
9.47
11.31
14.62
19.28
24.99
31.52
38.90
47.46
57.69
69.94
84.21
100.11
116.96
133.91
150.05
164.32
175.67
183.16
186.37
185.63
182.03
177.08
172.05
167.59
163.44
158.67
151.99
142.23
128.58
110.94
89.98
67.22
44.89
25.32
10.35
0.77
-3.85
-4.82
-3.73
-1.86
0.02
1.50
2.23
1.66
-0.72
-5.02
-10.54
-15.90
-19.45
-20.17
-18.21
-14.85
-11.95
-10.91
-11.94
-14.13
-16.03
-16.55
-15.50
-13.60
-11.81
-10.70
-10.08
-9.25
-7.60
-5.12
-2.53
-0.91
-1.28
-4.12
-9.34
-16.31
-24.13
-31.70
-37.97
-42.17
-43.98
-43.70
-42.13
-40.42
-39.61
-40.47
-43.40
-48.51
-55.75
-64.91
-75.67
-87.74
-101.19
-116.15
-132.61
-150.08
-167.39
-183.01
-195.52
-204.20
-209.17
-211.70
-213.13
-214.42
-215.89
-217.31
-218.33
-218.85
-219.24
-220.24
-223.43
-229.82
-239.06
-249.01
-256.10
-256.60
-248.07
-230.45
-206.14
-180.10
-157.33
-141.20
-132.72
-130.77
-133.08
-137.44
-142.14
-139.18
-122.51
-88.52
-37.57
25.80
94.42
160.76
218.62
263.93
295.27
312.62
317.89
314.07
304.27
291.12
276.28
260.65
244.60
228.53
212.14
195.27
178.06
161.07
145.17
131.07
119.41
109.83
101.68
93.66
84.63
73.87
61.26
47.37
33.16
20.02
9.44
2.76
0.39
1.77
5.46
9.74
13.37
15.88
18.02
21.11
26.25
33.44
41.37
47.90
50.63
49.52
44.57
36.68
27.23
17.67
8.96
1.49
-4.97
-10.81
-16.49
-22.44
-28.71
-35.06
-41.04
-46.31
-50.60
-53.77
-55.72
-56.44
-56.13
-55.02
-53.42
-51.78
-50.57
-50.26
-51.05
-52.86
-55.27
-57.76
-59.72
-60.59
-60.10
-58.28
-55.42
-51.97
-48.46
-45.33
-43.06
-41.91
-41.96
-42.97
-44.49
-45.96
-46.90
-47.08
-46.50
-45.29
-43.47
-40.93
-37.57
-33.61
-29.55
-26.12
-23.75
-22.26
-20.79
-18.30
-14.01
-7.88
-0.49
7.29
14.84
21.91
28.56
34.73
40.01
43.67
45.04
43.82
40.32
35.17
29.08
22.52
15.80
9.30
3.69
-0.06
-0.98
1.33
6.43
12.98
19.17
23.36
24.63
23.01
19.28
14.54
9.72
5.37
1.70
-1.17
-3.00
-3.28
-1.42
2.89
9.34
16.85
23.68
28.06
28.79
25.88
20.56
14.87
10.76
9.25
9.96
11.37
11.62
9.42
4.75
-1.13
-6.23
-8.65
-7.37
-2.56
4.50
11.94
17.99
21.46
21.96
19.88
16.21
12.20
9.13
8.12
9.89
14.59
21.68
29.98
37.89
43.89
46.90
46.66
43.69
39.05
33.96
29.51
26.38
24.86
24.83
25.97
27.83
30.02
32.19
33.95
34.85
34.42
32.33
28.62
23.84
18.93
14.89
12.47
11.74
12.18
12.87
12.78
11.16
7.72
2.74
-3.07
-8.67
-13.03
-15.50
-16.08
-15.41
-14.49
-14.22
-14.88
-15.94
-16.23
-14.49
-9.87
-2.47
6.65
15.76
22.98
26.90
26.88
23.16
16.64
8.50
-0.06
-8.03
-14.53
-18.84
-20.36
-18.77
-14.12
-7.00
1.45
9.70
15.97
18.47
15.81
7.31
-6.62
-24.46
-43.68
-61.42
-75.24
-83.84
-87.52
-88.05
-87.86
-89.06
-92.56
-97.69
-102.69
-105.52
-104.84
-100.56
-93.77
-86.19
-79.45
-74.52
-71.53
-70.03
-69.28
-68.58
-67.39
-65.32
-62.23
-58.27
-54.04
-50.41
-48.34
-48.45
-50.70
-54.39
-58.25
-60.79
-60.74
-57.35
-50.80
-42.32
-34.02
-28.15
-26.09
-27.41
-29.90
-30.35
-26.22
-16.87
-3.98
9.39
20.39
27.62
31.57
33.90
36.21
39.12
42.12
44.18
44.59
43.51
42.01
41.65
43.80
49.06
56.99
66.12
74.25
79.01
78.42
71.42
58.19
40.10
19.58
-0.42
-17.10
-28.58
-34.44
-35.90
-35.39
-35.61
-38.46
-44.25
-51.63
-58.11
-61.19
-59.29
-52.24
-41.14
-27.87
-14.59
-3.28
4.42
7.62
6.34
1.85
-3.44
-6.63
-5.23
1.85
13.94
28.86
43.80
56.35
65.16
70.16
72.35
73.22
74.33
76.93
81.66
88.36
96.15
103.62
109.34
112.37
112.59
110.61
107.38
103.58
99.14
93.28
84.86
73.17
58.52
42.69
28.65
19.90
19.16
27.35
42.61
60.34
74.14
77.70
66.99
41.92
6.80
-30.76
-62.29
-81.20
-85.01
-76.00
-60.36
-45.91
-39.57
-45.19
-62.54
-87.61
-113.93
-134.67
-144.60
-141.62
-127.28
-106.34
-85.44
-71.36
-69.22
-81.11
-105.52
-137.71
-170.79
-197.38
-211.30
-208.97
-190.08
-157.70
-117.45
-76.33
-41.10
-16.64
-4.77
-3.89
-9.81
-17.39
-22.47
-23.08
-19.59
-13.81
-7.57
-1.81
3.56
9.17
15.35
21.80
27.86
32.90
36.86
40.24
43.67
47.44
51.28
54.42
56.00
55.58
53.32
49.96
46.48
43.69
42.03
41.49
41.80
42.56
43.20
42.89
40.70
35.96
28.76
20.15
11.89
5.60
1.97
0.34
-0.89
-3.28
-7.49
-13.02
-18.68
-23.43
-26.93
-29.57
-31.89
-34.02
-35.54
-35.82
-34.47
-31.64
-27.97
-24.37
-21.68
-20.58
-21.51
-24.72
-30.14
-37.41
-45.69
-53.84
-60.60
-64.77
-65.30
-61.30
-52.30
-38.62
-21.70
-4.08
11.21
21.73
26.57
26.72
24.50
22.37
21.85
23.09
25.26
27.48
29.56
32.09
35.92
41.33
47.61
53.30
56.90
57.59
55.63
52.15
48.70
46.42
45.73
46.25
47.16
47.69
47.50
46.72
45.78
45.10
44.74
44.41
43.64
42.01
39.45
36.24
32.87
29.87
27.45
25.47
23.50
21.12
18.08
14.45
10.65
7.17
4.35
2.14
0.11
-2.39
-5.91
-10.64
-16.28
-22.23
-27.71
-32.15
-35.38
-37.57
-39.30
-41.36
-44.58
-49.70
-57.06
-66.16
-75.50
-82.70
-85.37
-82.10
-73.22
-60.79
-47.71
-36.38
-27.72
-21.07
-14.90
-7.95
-0.06
7.88
14.53
19.03
21.37
22.36
23.01
24.10
25.95
28.51
31.62
35.09
38.65
42.09
45.13
47.52
49.17
50.09
50.38
50.09
49.24
47.84
45.94
43.75
41.56
39.66
38.20
37.22
36.74
36.86
37.67
39.21
41.25
43.28
44.69
44.97
43.91
41.65
38.61
35.27
32.13
29.61
28.03
27.54
27.99
28.87
29.48
29.10
27.40
24.49
20.93
17.45
14.69
13.05
12.50
12.65
12.84
12.30
10.36
6.78
2.01
-2.95
-6.73
-8.21
-7.03
-3.92
-0.59
1.03
-0.40
-4.88
-11.13
-17.31
-22.04
-25.15
-27.54
-30.27
-33.50
-35.96
-35.40
-29.96
-19.41
-5.65
8.04
18.47
23.95
24.86
23.13
21.12
20.70
22.74
27.32
34.01
42.09
50.37
57.11
60.21
57.77
48.90
34.15
15.47
-4.30
-22.21
-35.98
-44.37
-47.29
-45.78
-41.64
-37.12
-34.21
-34.10
-36.69
-40.68
-44.07
-45.12
-42.96
-37.76
-30.45
-22.18
-13.92
-6.45
-0.50
3.11
3.70
1.09
-4.05
-10.25
-15.77
-19.27
-20.47
-20.26
-20.34
-22.56
-28.13
-37.21
-48.74
-60.78
-71.06
-77.63
-79.41
-76.40
-69.40
-59.56
-47.81
-34.81
-21.02
-7.00
6.36
18.07
27.39
34.09
38.64
41.82
44.43
46.98
49.70
52.73
56.32
60.77
66.08
71.62
76.10
77.88
75.73
69.50
60.37
50.54
42.43
37.82
37.24
39.92
44.22
48.25
50.45
49.93
46.67
41.24
34.58
27.70
21.51
16.63
13.43
12.03
12.33
13.95
16.28
18.53
19.99
20.14
18.87
16.32
12.78
8.52
3.86
-0.78
-4.83
-7.64
-8.81
-8.49
-7.47
-6.91
-7.85
-10.74
-15.23
-20.42
-25.34
-29.48
-33.01
-36.62
-41.03
-46.59
-52.89
-58.88
-63.18
-64.52
-62.08
-55.61
-45.34
-31.81
-15.87
1.34
18.29
33.21
44.40
50.80
52.37
50.15
45.89
41.42
38.15
36.74
37.23
39.30
42.54
46.60
51.12
55.65
59.58
62.19
62.79
60.81
56.04
48.71
39.61
30.18
22.21
17.39
16.68
19.86
25.39
30.83
33.59
31.83
25.03
14.22
1.56
-10.36
-19.35
-24.21
-24.94
-22.55
-18.54
-14.50
-11.75
-11.22
-13.41
-18.47
-26.20
-35.99
-46.90
-57.80
-67.61
-75.54
-81.16
-84.39
-85.39
-84.62
-82.83
-81.07
-80.37
-81.36
-83.83
-86.56
-87.71
-85.51
-79.00
-68.43
-55.12
-40.96
-27.69
-16.46
-7.61
-0.81
4.67
9.69
14.87
20.43
26.03
30.92
34.14
35.04
33.62
30.60
27.27
25.00
24.73
26.70
30.34
34.52
38.03
39.97
39.99
38.25
35.12
30.95
26.04
20.87
16.39
13.96
14.80
19.33
26.57
34.25
39.75
41.16
38.26
32.52
26.39
22.13
20.93
22.72
26.44
30.74
34.48
37.04
38.33
38.61
38.32
37.93
37.65
37.36
36.56
34.62
31.22
26.52
21.22
16.28
12.39
9.70
7.79
5.92
3.36
-0.35
-5.28
-11.26
-17.77
-23.98
-28.72
-30.66
-28.90
-23.44
-15.54
-7.44
-1.60
0.35
-1.67
-6.18
-10.96
-14.28
-15.85
-17.00
-19.98
-26.71
-37.88
-52.57
-68.78
-84.23
-97.31
-107.33
-114.50
-119.51
-123.13
-125.85
-127.95
-129.35
-129.68
-128.39
-124.91
-118.77
-109.89
-98.60
-85.69
-72.29
-59.79
-49.54
-42.52
-38.82
-37.51
-36.68
-34.14
-28.12
-18.03
-4.75
9.73
23.03
33.28
39.85
43.54
46.18
49.95
56.46
66.24
78.50
91.44
102.87
110.88
114.38
113.48
109.33
103.66
98.06
93.41
89.47
85.20
79.32
71.09
60.81
49.80
39.91
32.86
29.53
29.86
32.88
37.13
41.08
43.53
43.84
41.93
38.18
33.28
28.00
23.08
19.19
16.82
16.20
17.19
19.21
21.40
22.93
23.20
22.00
19.42
15.75
11.42
6.95
2.95
0.08
-1.21
-0.89
0.39
1.49
1.11
-1.64
-6.83
-13.69
-20.83
-26.88
-30.88
-32.59
-32.36
-31.00
-29.44
-28.47
-28.61
-29.96
-32.13
-34.28
-35.38
-34.61
-31.89
-27.92
-23.90
-20.85
-19.00
-17.64
-15.50
-11.60
-5.90
0.50
5.86
8.68
8.40
5.59
1.52
-2.36
-4.99
-5.86
-4.88
-2.30
1.38
5.24
7.96
8.15
4.90
-1.64
-9.88
-17.20
-20.69
-18.29
-9.55
4.23
20.48
36.29
49.33
58.26
62.78
63.17
60.03
54.16
46.64
38.83
32.08
27.28
24.53
23.23
22.48
21.76
21.19
21.32
22.64
24.98
27.53
29.22
29.41
28.33
26.97
26.39
27.07
28.52
29.61
29.22
26.95
23.28
19.27
15.94
13.69
12.17
10.69
8.87
7.07
6.36
8.01
12.51
19.10
25.75
29.90
29.64
24.63
16.32
7.30
0.09
-4.00
-5.46
-6.05
-7.85
-12.19
-19.22
-28.18
-37.99
-47.70
-56.60
-63.99
-69.14
-71.43
-70.79
-67.85
-63.79
-59.73
-56.05
-52.15
-46.85
-39.04
-28.58
-16.58
-5.14
3.53
7.96
8.06
5.17
1.50
-0.68
0.01
3.61
8.94
14.19
17.83
19.34
19.38
19.50
21.34
25.70
32.21
39.34
45.09
47.80
46.81
42.78
37.18
31.68
27.30
24.03
20.95
16.82
10.86
3.39
-4.23
-10.08
-12.53
-11.03
-6.38
-0.36
4.87
7.58
6.82
2.52
-4.61
-13.29
-21.80
-28.23
-31.13
-30.07
-26.03
-21.16
-17.99
-18.33
-22.56
-29.62
-37.79
-45.50
-51.96
-57.19
-61.70
-65.98
-70.35
-74.81
-79.00
-82.04
-82.39
-78.21
-68.04
-51.86
-31.66
-11.23
4.95
13.37
12.90
5.14
-6.18
-16.60
-22.43
-21.67
-14.21
-1.45
14.30
30.45
44.39
53.92
57.70
55.66
49.22
40.90
33.62
29.59
29.71
33.44
39.30
45.73
51.65
56.68
60.90
64.42
67.05
68.26
67.28
63.52
56.81
47.58
36.84
25.99
16.33
8.75
3.47
0.12
-1.97
-3.42
-4.69
-6.03
-7.61
-9.61
-12.14
-15.17
-18.42
-21.53
-24.19
-26.28
-27.95
-29.51
-31.32
-33.58
-36.28
-39.20
-41.90
-43.93
-45.00
-45.13
-44.76
-44.65
-45.68
-48.43
-52.98
-58.77
-64.67
-69.35
-71.62
-70.70
-66.48
-59.46
-50.56
-40.86
-31.26
-22.30
-14.20
-6.97
-0.63
4.66
8.57
10.82
11.35
10.45
8.78
7.15
6.36
6.90
8.93
12.16
15.97
19.51
21.93
22.58
21.21
17.91
13.07
7.08
0.24
-7.35
-15.57
-23.99
-31.57
-36.74
-37.65
-32.98
-22.49
-7.53
9.12
23.87
33.31
35.12
28.69
15.15
-3.11
-23.01
-41.35
-55.29
-62.56
-61.85
-53.08
-37.60
-18.14
1.76
18.64
30.16
35.76
36.74
35.53
34.65
35.70
38.95
43.38
47.36
49.40
48.59
44.95
39.26
32.81
27.11
23.51
22.90
25.42
30.36
36.26
41.48
44.79
45.85
45.30
44.43
44.55
46.43
50.16
55.32
61.47
68.45
76.33
84.98
93.50
100.03
102.05
97.14
83.98
62.99
36.48
8.12
-17.99
-38.47
-51.44
-56.90
-56.46
-52.69
-48.16
-44.80
-43.35
-43.43
-43.97
-43.72
-41.77
-37.75
-31.97
-25.22
-18.67
-13.76
-12.02
-14.80
-22.80
-35.57
-51.10
-65.89
-75.91
-77.93
-70.92
-56.66
-39.05
-22.51
-10.10
-2.33
2.71
8.09
16.22
27.61
40.56
52.00
58.94
59.58
53.97
43.75
31.44
19.52
9.76
2.83
-1.66
-5.03
-9.11
-15.85
-26.69
-41.91
-60.17
-78.57
-93.39
-101.15
-99.99
-90.23
-74.18
-55.22
-36.55
-20.37
-7.60
1.68
7.63
10.28
9.43
5.03
-2.42
-11.63
-20.70
-27.52
-30.44
-28.70
-22.74
-14.07
-4.75
3.19
8.44
10.75
10.86
10.15
10.06
11.57
15.01
20.14
26.25
32.49
37.98
41.90
43.55
42.44
38.49
32.12
24.31
16.37
9.60
5.03
3.16
4.01
7.09
11.65
16.68
21.08
23.78
24.04
21.58
16.82
10.75
4.75
0.11
-2.25
-2.13
-0.00
3.07
5.86
7.34
7.00
4.80
1.09
-3.65
-8.93
-14.30
-19.29
-23.52
-26.71
-28.96
-30.78
-32.97
-36.20
-40.57
-45.41
-49.30
-50.65
-48.19
-41.54
-31.37
-19.14
-6.67
4.51
13.46
20.08
24.82
28.34
31.04
33.00
34.01
33.87
32.67
30.92
29.35
28.64
29.19
30.99
33.58
36.25
38.13
38.40
36.44
31.91
24.91
15.91
5.77
-4.46
-13.60
-20.62
-24.74
-25.68
-23.65
-19.42
-14.07
-8.68
-4.07
-0.58
1.86
3.55
4.80
5.73
6.41
6.86
7.22
7.76
8.74
10.32
12.37
14.49
16.16
17.08
17.30
17.25
17.56
18.59
20.18
21.62
21.97
20.62
17.73
14.29
11.76
11.40
13.72
18.27
23.81
28.80
31.85
32.00
28.98
23.24
16.13
9.75
6.74
9.56
19.65
36.60
57.74
78.60
94.15
100.55
96.60
84.24
67.55
50.87
36.90
25.88
16.22
5.93
-6.02
-19.62
-34.69
-51.71
-71.78
-95.24
-120.06
-141.33
-152.70
-149.24
-130.05
-99.05
-63.34
-30.20
-4.45
12.54
21.97
25.89
25.87
22.73
17.19
10.54
4.67
1.42
1.67
4.88
9.07
11.66
10.49
4.66
-5.18
-17.04
-28.23
-36.33
-39.96
-39.19
-35.56
-31.44
-29.27
-30.90
-37.13
-47.66
-61.32
-76.48
-91.36
-104.33
-114.09
-119.82
-121.31
-118.97
-113.86
-107.47
-101.43
-97.01
-94.78
-94.30
-94.44
-93.71
-91.08
-86.38
-80.30
-74.05
-68.62
-64.37
-60.88
-57.33
-52.90
-47.19
-40.28
-32.56
-24.48
-16.41
-8.65
-1.54
4.58
9.49
13.28
16.31
19.22
22.57
26.57
30.98
35.13
38.31
40.06
40.39
39.63
38.33
36.88
35.50
34.30
33.50
33.47
34.70
37.38
41.22
45.24
48.18
48.97
47.22
43.33
38.22
32.81
27.60
22.53
17.32
11.89
6.64
2.37
-0.18
-0.68
0.33
1.60
1.68
-0.58
-5.58
-12.89
-21.45
-30.10
-37.86
-44.06
-48.34
-50.57
-50.78
-49.37
-47.16
-45.33
-45.06
-46.96
-50.70
-54.81
-57.10
-55.49
-48.87
-37.61
-23.42
-8.72
4.41
14.86
22.81
29.29
35.51
42.16
49.25
56.17
62.18
66.73
69.51
70.39
69.30
66.33
61.83
56.57
51.60
47.86
45.86
45.25
44.97
43.64
40.09
33.93
25.66
16.58
8.27
2.22
-0.79
-0.82
1.22
3.88
5.74
5.78
3.78
0.30
-3.52
-6.22
-6.49
-3.56
2.43
10.31
17.99
23.11
23.81
19.41
10.75
-0.30
-11.50
-21.29
-29.26
-36.11
-43.10
-51.24
-60.62
-70.19
-78.15
-82.60
-82.29
-77.05
-67.61
-55.15
-40.78
-25.26
-9.07
7.25
22.98
37.23
49.23
58.63
65.59
70.63
74.31
77.13
79.49
81.73
84.19
87.01
89.97
92.51
93.99
94.04
92.72
90.37
87.41
83.93
79.62
74.03
66.82
58.08
48.47
38.84
29.98
22.32
15.81
10.06
4.64
-0.71
-5.99
-11.04
-15.75
-20.19
-24.59
-29.20
-34.16
-39.35
-44.60
-49.82
-55.06
-60.46
-66.03
-71.47
-76.04
-78.76
-78.69
-75.25
-68.49
-59.01
-47.81
-36.01
-24.66
-14.55
-6.14
0.37
4.99
7.89
9.28
9.51
8.97
8.08
7.20
6.63
6.46
6.69
7.19
7.74
8.08
8.04
7.61
6.94
6.25
5.67
5.12
4.30
2.87
0.61
-2.47
-6.08
-9.88
-13.54
-16.84
-19.66
-21.97
-23.87
-25.58
-27.42
-29.75
-32.72
-36.27
-40.11
-43.86
-47.28
-50.30
-53.11
-55.95
-59.04
-62.41
-65.86
-68.92
-70.89
-70.92
-68.14
-61.97
-52.30
-39.53
-24.46
-8.02
9.08
26.41
43.81
61.20
78.40
95.00
110.43
124.19
136.01
145.94
154.38
161.84
168.75
175.32
181.40
186.40
189.41
189.41
185.59
177.66
166.04
151.77
136.26
121.04
107.41
96.25
87.89
82.14
78.29
75.34
72.19
67.79
61.28
52.10
40.07
25.49
9.16
-7.58
-23.16
-36.18
-45.83
-52.26
-56.55
-60.49
-66.04
-74.84
-87.69
-104.26
-123.09
-141.81
-157.66
-168.11
-171.58
-167.73
-157.54
-142.88
-126.04
-109.31
-94.71
-83.87
-78.03
-77.96
-83.87
-95.22
-110.60
-127.64
-143.41
-154.85
-159.56
-156.36
-145.51
-128.58
-107.94
-86.06
-64.95
-45.87
-29.26
-14.86
-1.95
10.40
22.95
36.07
49.59
62.96
75.51
86.81
96.74
105.58
113.68
121.16
127.76
132.81
135.65
136.05
134.48
131.89
129.37
127.62
126.77
126.46
126.13
125.26
123.54
120.91
117.59
113.92
110.32
107.10
104.40
102.02
99.66
97.11
94.44
92.03
90.29
89.28
88.53
87.14
84.12
78.75
70.78
60.41
48.19
34.85
21.21
8.00
-4.26
-15.41
-25.48
-34.53
-42.63
-49.92
-56.94
-64.86
-75.26
-89.58
-108.32
-130.51
-153.82
-175.18
-191.76
-201.91
-205.52
-203.76
-198.44
-191.29
-183.47
-175.52
-167.51
-159.39
-151.18
-142.99
-134.89
-126.87
-118.86
-110.80
-102.78
-94.95
-87.59
-80.88
-74.81
-69.11
-63.37
-57.21
-50.44
-43.26
-36.11
-29.47
-23.63
-18.65
-14.36
-10.43
-6.62
-2.67
1.55
6.19
11.27
16.69
22.11
27.07
31.23
34.48
37.00
39.02
40.58
41.49
41.43
40.11
37.52
33.92
29.71
25.31
21.04
17.17
13.92
11.41
9.57
7.98
6.04
3.09
-1.05
-5.96
-10.56
-13.39
-13.32
-9.96
-3.88
3.67
11.30
18.10
23.84
28.90
33.81
38.77
43.52
47.51
50.17
51.25
50.85
49.26
46.75
43.49
39.50
34.97
30.22
25.67
21.64
18.33
15.71
13.59
11.69
9.71
7.44
4.80
1.84
-1.26
-4.23
-6.78
-8.68
-9.81
-10.13
-9.74
-8.90
-7.95
-7.29
-7.24
-7.94
-9.24
-10.80
-12.18
-12.99
-13.10
-12.62
-11.81
-10.98
-10.32
-9.80
-9.25
-8.40
-7.16
-5.72
-4.56
-4.27
-5.24
-7.47
-10.37
-12.99
-14.22
-13.20
-9.44
-2.98
5.71
15.86
26.59
36.95
46.18
53.77
59.57
63.78
66.82
69.13
71.08
72.82
74.27
75.22
75.46
75.04
74.45
74.63
76.64
80.94
86.79
92.17
94.39
91.33
82.60
69.86
56.25
45.28
39.64
40.54
47.73
59.74
74.21
88.22
98.61
102.67
98.82
87.11
69.30
48.13
26.43
6.39
-10.72
-24.45
-34.90
-42.52
-48.03
-52.37
-56.60
-61.64
-68.04
-75.87
-84.79
-94.12
-103.16
-111.27
-117.89
-122.49
-124.59
-123.84
-120.11
-113.61
-104.93
-94.90
-84.45
-74.39
-65.31
-57.53
-51.08
-45.83
-41.44
-37.54
-33.79
-29.98
-26.07
-22.13
-18.28
-14.60
-11.10
-7.77
-4.55
-1.44
1.56
4.40
7.03
9.35
11.23
12.56
13.26
13.34
12.91
12.15
11.27
10.43
9.69
9.09
8.59
8.20
7.94
7.84
7.93
8.16
8.48
8.80
8.97
8.84
8.29
7.26
5.79
4.00
2.00
-0.16
-2.50
-5.09
-7.94
-11.02
-14.21
-17.38
-20.47
-23.45
-26.35
-29.12
-31.61
-33.47
-34.27
-33.55
-31.07
-26.88
-21.36
-15.15
-8.86
-3.02
2.10
6.42
10.01
12.97
15.43
17.55
19.46
21.36
23.35
25.45
27.59
29.58
31.26
32.45
33.08
33.17
32.83
32.21
31.41
30.43
29.16
27.38
24.86
21.51
17.34
12.56
7.46
2.35
-2.52
-7.03
-11.11
-14.77
-18.02
-20.89
-23.39
-25.57
-27.52
-29.29
-30.93
-32.30
-33.15
-33.02
-31.46
-28.09
-22.78
-15.69
-7.31
1.64
10.40
18.30
24.99
30.51
35.28
40.01
45.43
52.01
59.72
67.99
75.88
82.42
86.99
89.48
90.30
90.12
89.62
89.25
89.17
89.23
89.08
88.20
86.01
81.98
75.75
67.33
57.13
45.93
34.70
24.33
15.45
8.24
2.55
-2.06
-6.07
-9.96
-14.03
-18.37
-22.98
-27.75
-32.56
-37.29
-41.82
-46.06
-49.96
-53.57
-56.94
-60.17
-63.30
-66.38
-69.42
-72.44
-75.46
-78.53
-81.68
-84.76
-87.49
-89.64
-91.03
-91.66
-91.68
-91.35
-91.00
-90.99
-91.41
-92.26
-93.49
-95.10
-97.05
-99.11
-100.83
-101.69
-101.20
-98.68
-93.66
-86.14
-76.67
-66.12
-55.27
-44.55
-33.99
-23.28
-11.21
3.78
23.17
47.95
78.36
113.91
153.31
193.13
227.49
250.44
258.33
251.45
233.32
208.60
181.31
154.34
131.11
111.79
96.57
85.63
78.52
73.98
70.25
65.74
59.50
51.48
42.04
32.14
22.58
13.62
4.98
-3.81
-13.02
-22.58
-32.17
-41.46
-49.72
-56.20
-60.43
-62.38
-62.47
-61.45
-60.16
-59.29
-59.30
-59.90
-60.24
-59.27
-56.14
-50.53
-42.84
-33.99
-25.20
-17.58
-11.75
-7.83
-5.67
-4.91
-5.29
-6.54
-8.45
-10.73
-13.16
-15.55
-17.93
-20.55
-23.69
-27.61
-32.36
-37.73
-43.40
-49.05
-54.62
-60.22
-66.14
-72.58
-79.44
-86.30
-92.55
-97.54
-100.93
-102.72
-103.22
-102.90
-102.19
-101.27
-100.00
-97.87
-94.16
-88.09
-79.05
-66.94
-52.35
-36.54
-21.22
-8.03
1.96
8.57
12.56
15.26
18.15
22.27
28.00
34.96
42.20
48.52
52.85
54.59
53.90
51.70
49.38
48.39
49.74
53.61
59.42
66.09
72.41
77.46
80.70
82.05
81.70
79.98
77.17
73.57
69.43
64.96
60.34
55.66
50.91
45.98
40.74
35.25
29.74
24.70
20.66
18.02
16.88
16.97
17.74
18.54
18.83
18.37
17.23
15.67
14.10
12.83
11.92
11.27
10.62
9.72
8.51
7.09
5.66
4.37
3.26
2.23
1.19
0.09
-0.96
-1.81
-2.34
-2.66
-3.07
-3.95
-5.54
-7.76
-10.25
-12.44
-13.96
-14.76
-15.16
-15.71
-16.86
-18.78
-21.28
-23.98
-26.55
-28.95
-31.42
-34.41
-38.18
-42.61
-47.17
-50.95
-52.98
-52.52
-49.33
-43.74
-36.49
-28.46
-20.38
-12.69
-5.47
1.28
7.52
13.03
17.47
20.51
22.04
22.24
21.53
20.49
19.52
18.85
18.45
18.22
18.09
18.12
18.53
19.45
20.86
22.42
23.61
23.98
23.35
21.88
20.03
18.31
17.06
16.35
15.99
15.74
15.37
14.78
14.04
13.27
12.70
12.49
12.76
13.52
14.63
15.96
17.36
18.84
20.46
22.44
24.97
28.14
31.74
35.26
38.01
39.47
39.50
38.47
37.05
35.95
35.58
36.03
37.11
38.78
41.21
44.72
49.47
55.21
61.28
66.85
71.23
74.03
75.14
74.44
71.82
67.26
61.08
54.17
47.71
42.84
40.04
38.97
38.62
37.87
35.99
32.91
29.05
24.91
20.70
16.25
11.30
5.82
0.11
-5.20
-9.67
-13.23
-16.38
-19.92
-24.52
-30.36
-37.04
-43.84
-50.05
-55.40
-60.10
-64.60
-69.20
-73.71
-77.44
-79.54
-79.46
-77.26
-73.72
-69.92
-66.79
-64.69
-63.39
-62.24
-60.69
-58.55
-56.01
-53.49
-51.33
-49.57
-48.05
-46.59
-45.24
-44.32
-44.23
-45.15
-46.83
-48.57
-49.44
-48.69
-46.03
-41.73
-36.44
-30.96
-25.88
-21.44
-17.51
-13.81
-10.07
-6.25
-2.57
0.57
2.74
3.64
3.23
1.70
-0.51
-2.87
-4.83
-5.95
-5.88
-4.37
-1.31
3.24
8.94
15.23
21.36
26.54
30.11
31.61
30.86
27.89
22.98
16.62
9.53
2.60
-3.33
-7.70
-10.47
-12.06
-13.02
-13.69
-14.09
-13.92
-12.97
-11.33
-9.39
-7.72
-6.72
-6.50
-7.01
-8.18
-10.04
-12.64
-15.81
-19.04
-21.62
-22.92
-22.68
-21.09
-18.59
-15.68
-12.76
-10.20
-8.29
-7.24
-7.09
-7.56
-8.17
-8.45
-8.21
-7.69
-7.38
-7.76
-9.08
-11.35
-14.44
-18.25
-22.70
-27.63
-32.71
-37.47
-41.53
-44.83
-47.69
-50.70
-54.39
-58.82
-63.50
-67.56
-70.14
-70.69
-69.11
-65.69
-60.83
-54.89
-48.05
-40.42
-32.26
-23.99
-16.27
-9.83
-5.28
-2.83
-2.25
-2.89
-3.86
-4.33
-3.72
-1.90
0.90
4.28
7.85
11.39
14.80
17.97
20.65
22.52
23.33
23.05
22.08
21.01
20.42
20.55
21.16
21.72
21.64
20.58
18.52
15.73
12.64
9.60
6.91
4.72
3.10
2.01
1.30
0.74
0.08
-0.87
-2.27
-4.12
-6.39
-8.98
-11.71
-14.46
-17.12
-19.70
-22.31
-25.08
-28.02
-31.13
-34.30
-37.61
-41.28
-45.70
-51.22
-57.83
-65.03
-71.70
-76.36
-77.66
-74.74
-67.56
-56.90
-44.10
-30.74
-18.20
-7.41
1.22
7.76
12.55
16.01
18.46
20.17
21.38
22.41
23.65
25.48
28.07
31.27
34.67
37.70
40.01
41.55
42.59
43.56
44.73
46.08
47.34
48.14
48.28
47.74
46.70
45.41
44.00
42.46
40.71
38.67
36.45
34.28
32.44
31.13
30.33
29.84
29.32
28.43
27.04
25.26
23.35
21.61
20.17
18.84
17.32
15.22
12.44
9.19
5.95
3.24
1.29
-0.08
-1.32
-3.01
-5.48
-8.75
-12.67
-16.97
-21.50
-26.15
-30.90
-35.69
-40.45
-45.14
-49.82
-54.71
-59.96
-65.54
-71.02
-75.65
-78.48
-78.77
-76.18
-70.85
-63.36
-54.49
-44.90
-34.98
-24.83
-14.54
-4.40
4.97
12.75
18.35
21.71
23.41
24.40
25.65
27.71
30.57
33.76
36.78
39.33
41.40
43.24
45.14
47.21
49.35
51.37
53.02
54.09
54.43
54.04
53.03
51.56
49.82
47.92
45.89
43.73
41.53
39.46
37.72
36.46
35.65
35.11
34.53
33.66
32.41
30.88
29.27
27.78
26.47
25.23
23.83
22.04
19.66
16.71
13.35
9.92
6.78
4.11
1.82
-0.40
-2.97
-6.14
-9.93
-14.17
-18.61
-23.02
-27.26
-31.26
-35.06
-38.84
-42.86
-47.45
-52.80
-58.71
-64.46
-68.90
-70.66
-68.63
-62.34
-52.11
-38.95
-24.35
-9.87
3.18
13.94
22.07
27.65
31.08
32.88
33.58
33.65
33.54
33.64
34.23
35.43
37.14
39.06
40.80
42.01
42.51
42.33
41.69
40.90
40.16
39.54
38.95
38.24
37.28
36.01
34.41
32.60
30.72
28.98
27.54
26.50
25.82
25.33
24.84
24.21
23.45
22.55
21.55
20.35
18.75
16.50
13.42
9.50
4.91
-0.04
-5.02
-9.77
-14.19
-18.34
-22.43
-26.70
-31.34
-36.38
-41.67
-46.95
-51.86
-56.15
-59.73
-62.68
-65.25
-67.74
-70.46
-73.71
-77.70
-82.43
-87.43
-91.64
-93.46
-91.21
-83.80
-71.18
-54.57
-36.08
-17.96
-1.89
11.32
21.64
29.41
34.89
38.19
39.37
38.75
36.89
34.49
32.07
29.83
27.47
24.51
20.48
15.07
8.33
0.63
-7.53
-15.71
-23.61
-31.11
-38.29
-45.25
-52.10
-58.80
-65.22
-71.16
-76.32
-80.30
-82.68
-83.03
-81.03
-76.51
-69.55
-60.52
-50.04
-38.81
-27.24
-15.50
-3.49
9.03
22.18
35.83
49.55
62.66
74.47
84.72
93.44
100.93
107.62
113.95
120.24
126.46
132.21
136.77
139.98
141.66
141.64
139.85
136.44
131.88
126.96
122.55
119.42
119.42
123.65
131.99
143.05
154.74
165.05
172.55
176.52
176.80
176.07
176.65
179.86
185.73
193.45
202.14
211.09
219.47
226.07
232.41
239.29
246.44
252.82
257.44
260.01
260.95
260.47
241.29
193.72
116.67
19.16
-84.34
-180.77
-261.92
-324.22
-366.65
-393.51
-405.59
-403.83
-390.46
-369.32
-344.99
-321.27
-299.38
-279.86
-262.58
-244.49
-223.22
-197.98
-169.59
-139.94
-111.13
-84.86
-62.57
-45.16
-31.08
-18.58
-6.32
6.10
18.04
28.14
34.99
37.51
35.50
30.64
25.06
20.62
18.32
18.24
19.84
22.25
24.52
25.78
25.83
24.66
22.65
20.49
19.10
19.27
21.33
24.94
29.39
33.97
38.29
42.29
45.99
49.19
51.38
51.92
50.22
46.10
39.73
31.60
22.23
12.17
1.82
-8.61
-19.05
-29.50
-39.87
-49.87
-58.98
-66.71
-72.84
-77.64
-81.73
-85.63
-89.40
-92.51
-94.10
-93.51
-90.77
-86.66
-82.37
-79.03
-77.21
-76.83
-77.30
-77.83
-77.79
-76.86
-75.10
-72.91
-70.95
-69.97
-70.61
-73.07
-76.97
-81.23
-84.38
-84.92
-81.81
-74.77
-64.36
-51.77
-38.45
-25.63
-14.18
-4.52
3.23
9.07
13.09
15.48
16.68
17.34
18.18
19.80
22.51
26.18
30.37
34.56
38.25
41.24
43.54
45.32
46.75
47.96
48.91
49.41
49.21
48.06
45.92
42.96
39.47
35.78
32.03
28.23
24.30
20.28
16.29
12.43
8.75
5.09
1.31
-2.66
-6.57
-9.97
-12.26
-13.04
-12.28
-10.48
-8.57
-7.66
-8.63
-11.84
-16.89
-22.72
-27.89
-30.98
-31.00
-27.65
-21.23
-12.51
-2.43
7.99
17.85
26.34
32.98
37.61
40.47
42.03
42.82
43.20
43.28
43.06
42.50
41.71
40.83
40.05
39.45
38.99
38.60
38.25
37.92
37.58
37.11
36.35
35.14
33.48
31.53
29.49
27.51
25.61
23.67
21.55
19.16
16.49
13.56
10.47
7.34
4.34
1.74
-0.18
-1.23
-1.42
-1.06
-0.72
-1.04
-2.41
-4.88
-8.04
-11.26
-13.91
-15.64
-16.39
-16.49
-16.47
-16.96
-18.58
-21.83
-26.83
-33.16
-39.74
-45.09
-47.68
-46.52
-41.36
-32.74
-21.75
-9.65
2.37
13.36
22.68
29.94
35.13
38.46
40.35
41.31
41.82
42.21
42.78
43.68
45.03
46.80
48.83
50.88
52.69
54.12
55.14
55.80
56.12
56.16
55.92
55.44
54.77
53.95
53.03
52.07
51.10
50.07
48.79
46.95
44.20
40.28
35.17
29.08
22.49
15.92
9.81
4.42
-0.27
-4.53
-8.84
-13.78
-19.84
-27.21
-35.73
-44.80
-53.73
-61.85
-68.87
-74.82
-80.04
-84.95
-89.83
-94.71
-99.36
-103.49
-106.92
-109.68
-112.04
-114.35
-116.88
-119.69
-122.55
-125.02
-126.48
-126.26
-123.62
-117.94
-108.89
-96.61
-81.90
-66.07
-50.59
-36.68
-24.97
-15.44
-7.57
-0.77
5.36
10.86
15.59
19.43
22.51
25.17
27.85
30.79
34.01
37.32
40.54
43.66
46.83
50.26
53.99
57.78
61.24
63.90
65.51
65.99
65.47
64.24
62.69
61.39
61.05
62.30
65.51
70.48
76.38
81.90
85.62
86.28
83.13
75.98
65.20
51.76
37.05
22.67
10.10
0.34
-6.34
-10.32
-12.44
-13.53
-14.27
-15.02
-15.98
-17.35
-19.42
-22.58
-27.16
-33.15
-40.11
-47.08
-52.82
-56.15
-56.23
-52.91
-46.74
-38.82
-30.47
-22.81
-16.52
-11.79
-8.30
-5.51
-2.87
-0.02
3.16
6.51
9.71
12.45
14.54
15.90
16.58
16.64
16.27
15.80
15.73
16.58
18.66
21.80
25.32
28.23
29.65
29.27
27.38
24.77
22.26
20.39
19.21
18.50
18.00
17.64
17.48
17.60
18.00
18.52
18.97
19.25
19.35
19.38
19.41
19.55
19.87
20.56
21.79
23.68
26.12
28.58
30.22
29.95
26.86
20.57
11.56
1.17
-8.71
-16.31
-20.65
-22.00
-21.75
-21.87
-24.04
-29.01
-36.28
-44.22
-50.62
-53.42
-51.22
-43.67
-31.53
-16.28
0.38
16.95
32.44
46.39
58.59
69.00
77.53
84.08
88.64
91.27
92.02
90.92
87.99
83.28
76.97
69.31
60.57
50.97
40.73
30.14
19.61
9.62
0.57
-7.44
-14.64
-21.50
-28.62
-36.40
-44.88
-53.71
-62.21
-69.62
-75.38
-79.30
-81.64
-82.84
-83.32
-83.25
-82.49
-80.83
-78.25
-74.99
-71.57
-68.48
-65.93
-63.75
-61.50
-58.78
-55.45
-51.77
-48.25
-45.34
-43.25
-41.86
-40.80
-39.68
-38.29
-36.71
-35.24
-34.31
-34.28
-35.31
-37.19
-39.38
-41.02
-41.11
-38.83
-33.72
-25.94
-16.15
-5.43
5.11
14.60
22.52
28.66
33.06
35.84
37.21
37.45
36.87
35.87
34.81
33.96
33.44
33.30
33.47
33.85
34.34
34.84
35.30
35.74
36.12
36.35
36.27
35.67
34.39
32.41
29.94
27.29
24.82
22.71
20.91
19.26
17.56
15.75
13.90
12.19
10.71
9.44
8.20
6.84
5.27
3.55
1.85
0.29
-1.12
-2.57
-4.23
-6.19
-8.37
-10.57
-12.59
-14.32
-15.81
-17.14
-18.36
-19.51
-20.61
-21.82
-23.39
-25.55
-28.38
-31.60
-34.59
-36.50
-36.51
-34.19
-29.59
-23.26
-16.00
-8.67
-1.88
3.98
8.80
12.65
15.62
17.82
19.31
20.11
20.26
19.86
19.05
18.03
17.02
16.20
15.77
15.83
16.48
17.71
19.44
21.41
23.30
24.78
25.61
25.71
25.15
24.02
22.36
20.24
17.72
15.02
12.45
10.29
8.73
7.76
7.19
6.79
6.35
5.75
5.01
4.18
3.25
2.07
0.42
-1.89
-4.87
-8.25
-11.57
-14.39
-16.45
-17.79
-18.79
-19.89
-21.52
-23.90
-26.94
-30.32
-33.52
-35.89
-36.74
-35.53
-32.00
-26.29
-18.96
-10.89
-2.96
4.08
9.82
14.16
17.23
19.21
20.28
20.55
20.12
19.17
17.98
16.88
16.16
15.98
16.35
17.14
18.15
19.17
20.07
20.76
21.22
21.47
21.52
21.44
21.27
21.01
20.60
19.93
18.94
17.61
16.03
14.31
12.60
11.01
9.61
8.39
7.34
6.44
5.64
4.90
4.17
3.42
2.58
1.56
0.32
-1.22
-3.09
-5.28
-7.71
-10.27
-12.81
-15.20
-17.36
-19.27
-20.97
-22.52
-24.06
-25.74
-27.74
-30.14
-32.84
-35.49
-37.50
-38.18
-36.95
-33.58
-28.21
-21.34
-13.69
-5.97
1.20
7.37
12.25
15.73
17.88
18.93
19.19
19.01
18.68
18.37
18.12
17.92
17.74
17.57
17.42
17.35
17.42
17.64
18.00
18.41
18.77
18.98
18.97
18.69
18.13
17.31
16.28
15.08
13.77
12.40
11.09
9.94
9.02
8.36
7.96
7.77
7.70
7.59
7.26
6.63
5.64
4.36
2.90
1.34
-0.27
-1.86
-3.44
-4.98
-6.50
-8.02
-9.57
-11.18
-12.87
-14.61
-16.36
-18.02
-19.53
-20.86
-22.00
-23.03
-24.04
-25.17
-26.58
-28.32
-30.27
-32.16
-33.53
-33.88
-32.85
-30.32
-26.42
-21.49
-15.99
-10.38
-5.08
-0.41
3.39
6.21
8.07
9.13
9.64
9.89
10.19
10.76
11.71
13.05
14.61
16.17
17.51
18.48
19.10
19.50
19.84
20.23
20.67
21.04
21.15
20.85
20.07
18.85
17.31
15.59
13.80
11.99
10.16
8.35
6.59
4.99
3.61
2.46
1.53
0.68
-0.18
-1.15
-2.22
-3.29
-4.32
-5.24
-6.06
-6.84
-7.66
-8.60
-9.70
-10.95
-12.27
-13.60
-14.89
-16.16
-17.51
-19.09
-21.02
-23.35
-25.99
-28.70
-31.11
-32.78
-33.32
-32.39
-29.87
-25.86
-20.66
-14.76
-8.74
-3.17
1.48
4.95
7.13
8.18
8.36
8.02
7.49
7.06
6.93
7.21
7.92
8.94
10.08
11.09
11.77
12.01
11.84
11.39
10.81
10.19
9.48
8.63
7.58
6.39
5.23
4.30
3.76
3.56
3.54
3.44
3.06
2.30
1.22
-0.03
-1.30
-2.54
-3.79
-5.15
-6.66
-8.27
-9.84
-11.23
-12.35
-13.19
-13.79
-14.27
-14.71
-15.30
-16.22
-17.66
-19.78
-22.52
-25.61
-28.51
-30.52
-30.98
-29.42
-25.80
-20.44
-14.04
-7.45
-1.41
3.60
7.36
9.93
11.44
12.05
11.89
11.16
10.13
9.11
8.43
8.20
8.35
8.70
9.04
9.27
9.42
9.69
10.18
10.96
11.96
13.01
13.93
14.63
15.06
15.25
15.26
15.12
14.88
14.58
14.28
14.06
13.99
13.98
13.91
13.54
12.68
11.28
9.47
7.56
5.90
4.71
4.04
3.74
3.63
3.51
3.31
3.01
2.59
2.04
1.32
0.37
-0.77
-1.98
-3.14
-4.15
-5.00
-5.79
-6.72
-8.03
-9.88
-12.35
-15.40
-18.86
-22.46
-25.82
-28.53
-30.16
-30.33
-28.83
-25.71
-21.29
-16.13
-10.85
-5.98
-1.83
1.50
4.10
6.11
7.64
8.74
9.51
10.15
10.87
11.89
13.24
14.80
16.28
17.41
18.08
18.34
18.35
18.23
18.00
17.58
16.83
15.75
14.42
13.05
11.87
11.01
10.51
10.26
10.09
9.83
9.38
8.69
7.82
6.85
5.89
5.03
4.33
3.82
3.37
2.86
2.12
1.03
-0.46
-2.22
-4.03
-5.59
-6.68
-7.21
-7.32
-7.30
-7.49
-8.17
-9.44
-11.22
-13.33
-15.51
-17.53
-19.25
-20.63
-21.76
-22.93
-24.43
-26.42
-28.81
-31.15
-32.80
-33.10
-31.71
-28.62
-24.24
-19.14
-13.93
-9.13
-5.06
-1.88
0.36
1.72
2.43
2.76
3.00
3.38
3.96
4.70
5.48
6.20
6.81
7.36
7.95
8.71
9.65
10.70
11.72
12.51
12.99
13.18
13.22
13.25
13.30
13.32
13.13
12.59
11.68
10.50
9.23
8.02
6.91
5.84
4.72
3.48
2.16
0.84
-0.39
-1.54
-2.67
-3.87
-5.26
-6.87
-8.68
-10.60
-12.51
-14.26
-15.73
-16.83
-17.52
-17.87
-18.07
-18.45
-19.30
-20.79
-22.84
-25.06
-26.85
-27.64
-27.03
-24.93
-21.55
-17.29
-12.60
-7.93
-3.62
0.06
2.96
5.08
6.54
7.63
8.65
9.85
11.32
13.00
14.71
16.31
17.67
18.82
19.78
20.61
21.30
21.84
22.17
22.29
22.19
21.92
21.49
20.87
20.04
19.01
17.87
16.75
15.75
14.92
14.21
13.56
12.90
12.19
11.39
10.49
9.39
8.10
6.65
5.18
3.87
2.80
1.96
1.22
0.41
-0.58
-1.80
-3.20
-4.74
-6.31
-7.86
-9.34
-10.69
-11.87
-12.89
-13.79
-14.68
-15.67
-16.84
-18.16
-19.57
-20.98
-22.40
-23.95
-25.83
-28.15
-30.78
-33.31
-35.10
-35.47
-33.99
-30.64
-25.78
-20.03
-14.07
-8.38
-3.25
1.16
4.83
7.74
9.95
11.56
12.77
13.76
14.67
15.55
16.32
16.88
17.18
17.23
17.16
17.15
17.37
17.91
18.72
19.64
20.46
20.96
21.01
20.64
19.88
18.87
17.67
16.37
15.00
13.71
12.54
11.57
10.80
10.16
9.53
8.82
8.00
7.12
6.32
5.72
5.39
5.25
5.08
4.69
3.93
2.79
1.38
-0.14
-1.65
-3.12
-4.58
-6.10
-7.73
-9.50
-11.40
-13.40
-15.43
-17.36
-19.09
-20.50
-21.58
-22.38
-23.13
-24.09
-25.53
-27.56
-30.05
-32.63
-34.74
-35.76
-35.18
-32.78
-28.68
-23.26
-17.06
-10.68
-4.64
0.68
4.99
8.21
10.36
11.63
12.26
12.46
12.44
12.30
12.18
12.21
12.52
13.15
14.08
15.16
16.19
16.99
17.46
17.64
17.64
17.62
17.71
17.90
18.10
18.12
17.79
17.02
15.83
14.36
12.74
11.07
9.40
7.81
6.35
5.17
4.30
3.67
3.10
2.32
1.17
-0.36
-2.06
-3.69
-5.04
-6.09
-6.99
-7.99
-9.28
-10.90
-12.75
-14.60
-16.25
-17.63
-18.79
-19.95
-21.31
-23.04
-25.19
-27.73
-30.49
-33.20
-35.45
-36.75
-36.63
-34.76
-31.12
-25.95
-19.77
-13.20
-6.80
-0.98
3.98
7.97
10.95
12.95
14.11
14.58
14.52
14.09
13.38
12.50
11.60
10.89
10.57
10.84
11.74
13.20
15.03
16.99
18.79
20.17
20.95
21.04
20.53
19.59
18.41
17.12
15.75
14.24
12.50
10.60
8.63
6.78
5.19
3.93
3.00
2.34
1.87
1.50
1.15
0.77
0.26
-0.47
-1.49
-2.87
-4.65
-6.80
-9.20
-11.70
-14.16
-16.48
-18.58
-20.47
-22.17
-23.78
-25.47
-27.43
-29.82
-32.57
-35.34
-37.51
-38.40
-37.46
-34.51
-29.75
-23.68
-16.92
-9.98
-3.26
2.92
8.23
12.38
15.20
16.79
17.52
17.87
18.24
18.77
19.35
19.74
19.79
19.58
19.38
19.54
20.24
21.45
22.90
24.18
24.96
25.07
24.53
23.54
22.36
21.20
20.09
18.94
17.57
15.89
13.99
12.14
10.61
9.56
8.91
8.41
7.79
6.93
5.88
4.76
3.64
2.43
1.03
-0.63
-2.43
-4.11
-5.42
-6.23
-6.64
-6.96
-7.53
-8.61
-10.23
-12.18
-14.17
-15.90
-17.24
-18.17
-18.88
-19.63
-20.71
-22.33
-24.57
-27.36
-30.45
-33.44
-35.79
-36.91
-36.32
-33.83
-29.61
-24.05
-17.75
-11.22
-4.86
1.02
6.17
10.44
13.73
15.99
17.36
18.04
18.30
18.34
18.33
18.28
18.21
18.13
18.13
18.35
18.90
19.81
20.98
22.16
23.05
23.43
23.18
22.34
21.08
19.61
18.13
16.78
15.57
14.46
13.36
12.20
11.02
9.89
8.87
7.96
7.13
6.32
5.52
4.84
4.38
4.18
4.16
4.07
3.72
2.98
1.90
0.60
-0.80
-2.31
-3.94
-5.73
-7.65
-9.64
-11.69
-13.76
-15.82
-17.81
-19.65
-21.29
-22.79
-24.35
-26.23
-28.64
-31.58
-34.76
-37.66
-39.67
-40.22
-39.00
-35.95
-31.26
-25.33
-18.64
-11.75
-5.16
0.68
5.46
8.97
11.16
12.12
12.05
11.23
10.01
8.81
7.96
7.69
8.08
9.05
10.40
11.92
13.46
14.91
16.25
17.42
18.36
18.95
19.13
18.89
18.33
17.59
16.75
15.83
14.74
13.41
11.88
10.29
8.82
7.63
6.76
6.13
5.60
5.07
4.46
3.73
2.88
1.92
0.89
-0.12
-1.02
-1.78
-2.46
-3.30
-4.56
-6.46
-9.07
-12.25
-15.66
-18.90
-21.60
-23.58
-24.94
-26.06
-27.42
-29.41
-32.08
-35.11
-37.79
-39.27
-38.83
-36.12
-31.22
-24.60
-16.96
-9.05
-1.53
5.07
10.43
14.41
17.10
18.74
19.68
20.19
20.49
20.63
20.57
20.31
19.92
19.59
19.55
19.91
20.62
21.52
22.42
23.18
23.73
24.05
24.11
23.89
23.38
22.65
21.74
20.68
19.52
18.26
16.96
15.73
14.65
13.76
13.00
12.24
11.34
10.28
9.16
8.12
7.28
6.59
5.94
5.16
4.13
2.85
1.45
0.06
-1.23
-2.45
-3.72
-5.13
-6.71
-8.36
-9.91
-11.27
-12.51
-13.83
-15.45
-17.45
-19.68
-21.83
-23.54
-24.63
-25.21
-25.68
-26.53
-28.08
-30.35
-33.04
-35.55
-37.22
-37.48
-35.88
-32.28
-26.77
-19.66
-11.46
-2.77
5.73
13.40
19.70
24.37
27.43
29.22
30.25
31.06
32.03
33.36
35.04
36.96
39.07
41.38
43.99
46.97
50.30
53.86
57.51
61.11
64.65
68.15
71.66
75.22
78.83
82.48
86.10
89.62
92.92
95.86
98.32
100.26
101.76
102.94
103.91
104.52
104.28
102.35
97.93
90.54
80.29
67.87
54.20
40.02
25.58
10.73
-4.89
-21.39
-38.39
-55.07
-70.43
-83.65
-94.20
-101.97
-107.05
-109.70
-110.30
-109.37
-107.56
-105.53
-103.87
-102.86
-102.53
-102.67
-103.02
-103.45
-103.89
-104.27
-104.34
-103.64
-101.65
-98.01
-92.72
-86.14
-78.94
-71.81
-65.30
-59.75
-55.27
-51.85
-49.40
-47.75
-46.66
-45.80
-44.84
-43.49
-41.61
-39.20
-36.39
-33.38
-30.36
-27.50
-24.90
-22.56
-20.42
-18.41
-16.50
-14.77
-13.37
-12.49
-12.26
-12.58
-13.20
-13.82
-14.17
-14.09
-13.63
-12.89
-11.99
-11.05
-10.14
-9.30
-8.55
-7.86
-7.14
-6.25
-5.05
-3.45
-1.44
0.90
3.37
5.68
7.53
8.66
8.92
8.33
7.05
5.34
3.40
1.34
-0.82
-3.08
-5.46
-7.94
-10.55
-13.32
-16.30
-19.43
-22.45
-24.87
-26.01
-25.29
-22.37
-17.41
-10.95
-3.84
3.06
9.04
13.73
16.94
18.71
19.21
18.68
17.52
16.24
15.38
15.39
16.47
18.52
21.19
23.99
26.41
28.14
29.04
29.15
28.60
27.54
26.10
24.34
22.35
20.17
17.90
15.63
13.44
11.35
9.27
7.13
4.87
2.57
0.40
-1.36
-2.47
-2.82
-2.39
-1.32
0.20
1.92
3.69
5.42
7.08
8.73
10.46
12.38
14.50
16.80
19.18
21.56
23.88
26.18
28.50
30.78
32.91
34.67
35.86
36.33
35.99
34.88
33.05
30.67
27.92
25.03
22.20
19.44
16.61
13.40
9.50
4.81
-0.39
-5.48
-9.66
-12.17
-12.50
-10.48
-6.36
-0.65
5.90
12.47
18.27
22.74
25.62
27.01
27.34
27.09
26.66
26.22
25.72
25.00
24.00
22.80
21.65
20.82
20.45
20.49
20.70
20.82
20.65
20.17
19.45
18.61
17.72
16.76
15.71
14.54
13.32
12.13
11.09
10.22
9.52
8.93
8.37
7.78
7.05
6.14
5.05
3.87
2.73
1.76
0.95
0.18
-0.76
-2.05
-3.71
-5.62
-7.57
-9.40
-11.07
-12.68
-14.33
-16.10
-17.96
-19.84
-21.74
-23.75
-26.11
-29.07
-32.77
-37.05
-41.43
-45.11
-47.18
-46.86
-43.83
-38.24
-30.76
-22.26
-13.59
-5.38
1.95
8.13
13.00
16.44
18.45
19.26
19.26
18.96
18.80
18.98
19.53
20.31
21.19
22.07
22.96
23.83
24.68
25.47
26.13
26.59
26.79
26.67
26.16
25.27
24.03
22.54
20.91
19.23
17.56
15.88
14.18
12.49
10.85
9.31
7.88
6.55
5.27
4.04
2.89
1.91
1.16
0.58
0.06
-0.58
-1.46
-2.58
-3.87
-5.19
-6.48
-7.78
-9.26
-11.11
-13.49
-16.41
-19.77
-23.29
-26.70
-29.71
-32.09
-33.78
-34.87
-35.55
-36.00
-36.35
-36.53
-36.32
-35.39
-33.38
-30.05
-25.36
-19.44
-12.60
-5.19
2.45
9.95
16.98
23.20
28.37
32.32
34.96
36.36
36.60
35.86
34.38
32.52
30.67
29.15
28.20
27.84
27.96
28.30
28.69
29.01
29.20
29.19
28.87
28.14
26.99
25.55
24.09
22.91
22.28
22.37
23.24
24.81
26.92
29.33
31.73
33.78
35.22
35.97
36.09
35.87
35.61
35.57
35.79
36.13
36.29
35.91
34.65
32.36
29.06
24.95
20.34
15.50
10.65
5.87
1.17
-3.56
-8.49
-13.88
-20.01
-27.09
-35.11
-43.91
-53.05
-61.91
-69.75
-75.82
-79.51
-80.37
-78.25
-73.32
-66.03
-57.09
-47.38
-37.84
-29.37
-22.60
-17.79
-14.73
-12.84
-11.44
-10.01
-8.34
-6.53
-4.72
-2.99
-1.24
0.69
2.88
5.24
7.56
9.65
11.40
12.85
14.17
15.50
16.84
18.04
18.74
18.55
17.17
14.60
11.07
7.05
2.98
-0.91
-4.64
-8.36
-12.22
-16.18
-20.15
-24.14
-28.33
-32.99
-38.36
-44.42
-50.93
-57.55
-64.10
-70.62
-77.36
-84.61
-92.41
-100.46
-108.10
-114.50
-118.83
-120.42
-118.96
-114.50
-107.54
-98.91
-89.61
-80.52
-72.19
-64.76
-58.03
-51.64
-45.30
-38.84
-32.21
-25.33
-17.99
-9.79
-0.40
10.29
21.88
33.58
44.37
53.31
59.79
63.74
65.56
65.98
65.78
65.55
65.57
65.74
65.69
65.04
63.49
61.03
57.84
54.26
50.53
46.84
43.18
39.51
35.80
32.07
28.42
24.87
21.48
18.23
15.14
12.15
9.18
6.09
2.59
-1.52
-6.38
-11.76
-17.04
-21.31
-23.62
-23.39
-20.62
-15.99
-10.53
-5.26
-0.80
2.69
5.52
8.17
11.04
14.27
17.74
21.25
24.59
27.61
30.23
32.43
34.18
35.44
36.19
36.40
36.10
35.39
34.43
33.39
32.36
31.36
30.22
28.75
26.84
24.50
21.92
19.28
16.73
14.27
11.83
9.37
7.02
5.04
3.71
3.12
3.11
3.22
2.91
1.82
-0.09
-2.51
-4.92
-6.87
-8.07
-8.61
-8.73
-8.80
-9.08
-9.68
-10.52
-11.46
-12.35
-13.10
-13.69
-14.20
-14.72
-15.35
-16.22
-17.41
-18.95
-20.82
-22.88
-24.94
-26.82
-28.42
-29.82
-31.31
-33.22
-35.79
-39.02
-42.48
-45.44
-46.97
-46.26
-42.88
-36.96
-29.16
-20.48
-11.98
-4.48
1.56
6.06
9.22
11.41
12.98
14.24
15.45
16.75
18.30
20.15
22.24
24.40
26.42
28.00
28.99
29.37
29.29
29.08
29.02
29.30
29.90
30.65
31.29
31.62
31.55
31.07
30.26
29.22
28.01
26.65
25.11
23.31
21.22
18.85
16.31
13.74
11.37
9.36
7.76
6.54
5.52
4.48
3.22
1.61
-0.37
-2.67
-5.18
-7.74
-10.22
-12.51
-14.59
-16.44
-18.14
-19.77
-21.44
-23.24
-25.21
-27.33
-29.46
-31.39
-32.88
-33.76
-34.06
-34.02
-34.00
-34.36
-35.10
-35.86
-35.95
-34.59
-31.30
-26.05
-19.34
-11.93
-4.64
1.86
7.16
11.06
13.50
14.57
14.53
13.80
12.85
12.02
11.52
11.30
11.22
11.19
11.23
11.54
12.37
13.89
16.09
18.74
21.36
23.41
24.41
24.12
22.74
20.79
18.96
17.89
17.95
19.20
21.40
24.20
27.20
30.01
32.21
33.44
33.47
32.36
30.44
28.27
26.45
25.34
25.03
25.33
25.87
26.33
26.47
26.18
25.48
24.42
23.10
21.61
20.01
18.32
16.50
14.36
11.62
7.97
3.06
-3.28
-10.96
-19.52
-28.14
-35.76
-41.35
-44.12
-43.82
-40.72
-35.55
-29.11
-22.10
-14.90
-7.58
-0.13
7.45
14.92
21.98
28.32
33.82
38.58
42.83
46.76
50.34
53.34
55.41
56.17
55.39
52.98
48.92
43.19
35.77
26.74
16.41
5.43
-5.30
-14.89
-22.74
-28.73
-33.15
-36.39
-38.75
-40.23
-40.69
-40.20
-39.14
-38.23
-38.17
-39.26
-41.16
-42.96
-43.69
-42.76
-40.25
-36.79
-33.20
-30.05
-27.39
-24.76
-21.51
-17.13
-11.57
-5.27
0.97
6.31
10.10
12.04
12.16
10.78
8.27
5.08
1.66
-1.48
-3.75
-4.58
-3.61
-0.83
3.32
8.02
12.33
15.46
16.92
16.64
14.85
11.94
8.34
4.46
0.63
-2.85
-5.71
-7.87
-9.38
-10.48
-11.54
-12.87
-14.60
-16.66
-18.80
-20.79
-22.65
-24.63
-27.18
-30.62
-35.06
-40.16
-45.33
-49.81
-52.99
-54.52
-54.44
-52.99
-50.63
-47.94
-45.59
-44.35
-44.89
-47.45
-51.68
-56.56
-60.63
-62.42
-60.96
-56.13
-48.62
-39.71
-30.76
-22.79
-16.17
-10.57
-5.19
0.95
8.69
18.31
29.42
41.09
52.17
61.79
69.70
76.32
82.48
88.95
95.97
103.07
109.23
113.38
114.87
113.70
110.46
106.00
101.09
96.23
91.82
88.30
86.19
85.92
87.57
90.61
93.96
96.27
96.38
93.63
88.07
80.25
71.04
61.24
51.41
41.79
32.39
23.08
13.71
4.25
-5.20
-14.43
-23.23
-31.49
-39.36
-47.18
-55.28
-63.89
-72.88
-81.75
-89.70
-96.00
-100.29
-102.84
-104.42
-105.95
-108.10
-111.06
-114.54
-118.16
-121.71
-125.23
-128.73
-131.95
-134.07
-133.97
-130.62
-123.64
-113.51
-101.43
-88.82
-76.73
-65.65
-55.49
-45.91
-36.63
-27.64
-19.19
-11.57
-4.96
0.70
5.72
10.42
15.05
19.73
24.41
28.97
33.30
37.33
40.98
44.18
46.87
48.99
50.53
51.51
52.00
52.12
51.94
51.42
50.44
48.85
46.75
44.51
42.75
41.95
42.26
43.36
44.65
45.63
46.07
46.02
45.50
44.29
41.91
37.90
32.16
25.02
17.22
9.38
1.81
-5.47
-12.64
-19.77
-26.68
-32.97
-38.08
-41.40
-42.45
-41.01
-37.25
-31.81
-25.64
-19.72
-14.86
-11.61
-10.27
-10.92
-13.33
-16.84
-20.31
-22.28
-21.49
-17.37
-10.29
-1.55
7.31
15.01
20.95
25.17
28.03
29.89
30.94
31.30
31.12
30.70
30.37
30.43
30.90
31.63
32.33
32.71
32.62
32.13
31.42
30.72
30.15
29.67
28.99
27.62
25.09
21.08
15.59
8.88
1.41
-6.43
-14.37
-22.23
-29.81
-36.80
-42.83
-47.68
-51.30
-53.94
-55.99
-57.73
-59.22
-60.29
-60.71
-60.41
-59.61
-58.60
-57.68
-56.86
-55.77
-53.83
-50.51
-45.54
-39.11
-31.83
-24.49
-17.87
-12.53
-8.77
-6.68
-6.18
-6.96
-8.36
-9.39
-8.79
-5.47
1.08
10.57
21.92
33.63
44.27
52.80
58.65
61.73
62.25
60.61
57.39
53.22
48.74
44.43
40.58
37.32
34.69
32.79
31.67
31.35
31.70
32.46
33.29
33.85
33.91
33.35
32.21
30.59
28.69
26.62
24.50
22.32
20.00
17.43
14.54
11.38
8.10
4.94
2.05
-0.45
-2.61
-4.46
-6.09
-7.55
-8.96
-10.46
-12.11
-13.90
-15.67
-17.21
-18.32
-19.04
-19.59
-20.33
-21.55
-23.34
-25.63
-28.16
-30.50
-32.15
-32.46
-30.80
-26.73
-20.20
-11.67
-2.05
7.56
16.14
22.95
27.65
30.27
31.15
30.86
30.10
29.54
29.59
30.33
31.37
32.12
31.94
30.50
27.78
24.18
20.38
17.03
14.67
13.38
12.89
12.57
11.71
9.80
6.78
3.03
-0.75
-3.87
-5.88
-6.71
-6.67
-6.29
-6.08
-6.37
-7.17
-8.26
-9.34
-10.23
-10.98
-11.90
-13.35
-15.48
-18.17
-21.08
-23.93
-26.72
-29.74
-33.39
-37.81
-42.73
-47.49
-51.30
-53.51
-53.84
-52.31
-49.16
-44.71
-39.29
-33.29
-27.14
-21.33
-16.33
-12.52
-10.06
-8.88
-8.77
-9.41
-10.43
-11.52
-12.44
-13.08
-13.39
-13.42
-13.22
-12.82
-12.19
-11.24
-9.89
-8.09
-5.93
-3.59
-1.31
0.68
2.16
3.08
3.42
3.26
2.75
2.06
1.37
0.78
0.29
-0.16
-0.62
-1.09
-1.45
-1.53
-1.26
-0.71
-0.16
0.07
-0.24
-1.15
-2.55
-4.37
-6.60
-9.36
-12.72
-16.51
-20.20
-23.02
-24.14
-23.00
-19.55
-14.22
-7.91
-1.57
3.99
8.33
11.46
13.67
15.38
16.89
18.36
19.66
20.59
20.93
20.49
19.24
17.25
14.76
12.06
9.49
7.37
5.92
5.17
4.98
5.12
5.31
5.31
4.92
3.99
2.44
0.27
-2.34
-5.09
-7.49
-9.09
-9.64
-9.25
-8.26
-7.22
-6.61
-6.64
-7.27
-8.24
-9.32
-10.44
-11.68
-13.23
-15.19
-17.40
-19.42
-20.63
-20.43
-18.52
-14.91
-10.05
-4.49
1.21
6.68
11.71
16.19
19.96
22.84
24.66
25.33
24.96
23.71
21.81
19.40
16.55
13.38
10.07
6.92
4.33
2.63
2.01
2.46
3.76
5.56
7.46
9.08
10.11
10.32
9.69
8.24
6.12
3.53
0.68
-2.22
-5.03
-7.68
-10.20
-12.66
-15.14
-17.62
-19.96
-22.00
-23.62
-24.89
-26.02
-27.36
-29.15
-31.41
-33.82
-35.80
-36.64
-35.81
-33.10
-28.66
-22.96
-16.56
-9.92
-3.43
2.72
8.30
13.09
16.84
19.38
20.72
21.05
20.70
19.99
19.23
18.60
18.22
18.14
18.27
18.42
18.31
17.67
16.40
14.63
12.67
10.89
9.51
8.47
7.60
6.65
5.52
4.30
3.09
1.96
0.79
-0.62
-2.47
-4.75
-7.27
-9.65
-11.57
-12.80
-13.34
-13.37
-13.16
-13.11
-13.58
-14.86
-17.06
-20.01
-23.24
-26.02
-27.62
-27.50
-25.46
-21.64
-16.41
-10.26
-3.68
2.87
8.98
14.20
18.25
20.92
22.24
22.41
21.77
20.66
19.39
18.19
17.18
16.47
16.08
15.95
16.01
16.10
16.17
16.27
16.54
17.15
18.14
19.37
20.43
20.91
20.48
19.12
17.11
14.88
12.87
11.29
10.10
9.05
7.89
6.40
4.49
2.22
-0.25
-2.72
-5.01
-7.02
-8.76
-10.42
-12.27
-14.58
-17.38
-20.49
-23.40
-25.46
-26.06
-24.84
-21.75
-17.09
-11.36
-5.18
0.88
6.38
11.03
14.68
17.32
19.01
19.80
19.79
19.08
17.84
16.31
14.82
13.66
13.06
13.05
13.54
14.33
15.22
16.03
16.66
17.01
17.00
16.58
15.73
14.53
13.09
11.59
10.10
8.58
6.90
4.91
2.52
-0.20
-3.03
-5.76
-8.24
-10.47
-12.61
-14.84
-17.29
-19.93
-22.59
-25.08
-27.19
-28.80
-29.88
-30.53
-30.97
-31.49
-32.38
-33.70
-35.17
-36.11
-35.61
-32.84
-27.35
-19.21
-9.11
1.87
12.50
21.66
28.59
33.03
35.25
35.84
35.56
35.00
34.51
34.11
33.62
32.83
31.57
29.85
27.82
25.80
24.18
23.37
23.62
24.92
26.94
29.10
30.74
31.37
30.75
28.93
26.20
22.95
19.53
16.23
13.12
10.24
7.54
4.99
2.61
0.36
-1.84
-4.13
-6.66
-9.47
-12.46
-15.39
-17.99
-20.12
-21.80
-23.18
-24.47
-25.80
-27.31
-29.05
-31.13
-33.62
-36.41
-39.19
-41.35
-42.17
-41.03
-37.65
-32.19
-25.22
-17.53
-9.87
-2.82
3.28
8.32
12.27
15.15
17.01
17.91
17.97
17.41
16.53
15.69
15.20
15.27
15.91
17.00
18.36
19.83
21.31
22.69
23.91
24.84
25.29
25.13
24.31
22.89
21.05
19.02
17.00
15.12
13.38
11.71
10.03
8.28
6.46
4.60
2.74
0.87
-1.01
-2.86
-4.65
-6.32
-7.90
-9.48
-11.24
-13.28
-15.66
-18.23
-20.81
-23.15
-25.12
-26.79
-28.38
-30.18
-32.45
-35.26
-38.46
-41.59
-43.99
-44.97
-43.93
-40.63
-35.14
-27.96
-19.80
-11.45
-3.63
3.17
8.68
12.81
15.62
17.19
17.69
17.36
16.54
15.72
15.31
15.64
16.75
18.44
20.33
22.08
23.50
24.62
25.57
26.53
27.52
28.42
28.99
28.99
28.29
26.92
25.05
22.92
20.82
18.99
17.56
16.56
15.89
15.33
14.62
13.48
11.73
9.34
6.45
3.32
0.22
-2.66
-5.26
-7.63
-9.91
-12.15
-14.37
-16.51
-18.60
-20.69
-22.97
-25.67
-28.96
-32.83
-37.04
-41.10
-44.37
-46.15
-45.92
-43.41
-38.65
-32.04
-24.18
-15.82
-7.65
-0.24
6.09
11.23
15.18
17.95
19.56
20.02
19.46
18.18
16.62
15.30
14.65
14.90
15.98
17.71
19.77
21.87
23.77
25.24
26.07
26.13
25.37
23.88
21.88
19.62
17.32
15.10
13.00
11.00
9.13
7.47
6.12
5.12
4.40
3.75
2.95
1.82
0.31
-1.54
-3.62
-5.87
-8.24
-10.67
-13.10
-15.42
-17.60
-19.72
-21.99
-24.68
-27.99
-31.91
-36.04
-39.67
-41.96
-42.11
-39.64
-34.53
-27.22
-18.54
-9.48
-0.97
6.22
11.71
15.39
17.44
18.17
17.93
17.03
15.72
14.13
12.40
10.70
9.30
8.52
8.63
9.69
11.59
13.96
16.37
18.44
19.95
20.88
21.28
21.20
20.68
19.66
18.16
16.28
14.21
12.16
10.27
8.55
6.94
5.32
3.58
1.76
-0.10
-1.93
-3.73
-5.61
-7.65
-9.97
-12.54
-15.25
-17.96
-20.58
-23.13
-25.83
-28.97
-32.84
-37.48
-42.55
-47.31
-50.75
-51.91
-50.08
-45.11
-37.37
-27.64
-16.94
-6.26
3.60
12.02
18.66
23.34
26.11
27.16
26.82
25.57
23.87
22.21
20.92
20.17
19.94
20.09
20.42
20.84
21.37
22.05
22.91
23.88
24.73
25.16
24.92
23.92
22.21
19.98
17.52
15.08
12.77
10.56
8.28
5.76
2.91
-0.18
-3.28
-6.15
-8.60
-10.66
-12.51
-14.41
-16.62
-19.30
-22.52
-26.28
-30.47
-34.91
-39.31
-43.33
-46.81
-49.88
-53.09
-57.10
-62.35
-68.70
-75.22
-80.51
-83.06
-81.88
-76.76
-68.23
-57.36
-45.39
-33.47
-22.49
-13.12
-5.71
-0.37
3.02
4.89
5.80
6.52
7.79
10.28
14.35
20.06
27.09
34.95
43.13
51.28
59.21
66.81
74.02
80.70
86.63
91.61
95.39
97.85
98.86
98.39
96.50
93.38
89.32
84.66
79.68
74.51
69.12
63.39
57.22
50.65
43.98
37.59
31.82
26.77
22.11
17.25
11.58
4.91
-2.40
-9.47
-15.35
-19.48
-22.10
-24.09
-26.68
-30.75
-36.42
-43.03
-49.31
-53.98
-56.06
-55.17
-51.48
-45.52
-38.06
-29.80
-21.32
-12.99
-5.04
2.32
8.80
13.97
17.49
19.25
19.57
19.13
18.68
18.70
19.20
19.72
19.69
18.75
16.95
14.70
12.48
10.59
8.96
7.25
5.12
2.33
-0.98
-4.48
-7.79
-10.57
-12.70
-14.18
-15.11
-15.60
-15.83
-16.01
-16.56
-17.87
-20.28
-23.85
-28.36
-33.35
-38.28
-42.69
-46.26
-48.74
-49.87
-49.37
-47.07
-43.05
-37.78
-32.04
-26.71
-22.55
-20.00
-19.14
-19.60
-20.65
-21.31
-20.43
-16.98
-10.38
-0.68
11.36
24.41
37.00
47.88
56.33
62.15
65.61
67.16
67.31
66.55
65.29
63.91
62.68
61.74
61.13
60.78
60.63
60.66
60.86
61.20
61.58
61.83
61.68
60.84
59.05
56.09
51.87
46.41
39.88
32.62
25.02
17.50
10.39
3.87
-2.01
-7.33
-12.23
-16.86
-21.35
-25.76
-30.16
-34.59
-39.07
-43.59
-48.11
-52.49
-56.51
-60.00
-62.85
-65.15
-67.18
-69.34
-72.00
-75.37
-79.40
-83.69
-87.56
-90.11
-90.39
-87.64
-81.48
-72.06
-60.08
-46.62
-32.88
-19.90
-8.43
1.20
8.93
14.89
19.26
22.24
24.05
24.97
25.32
25.49
25.82
26.59
27.95
29.93
32.36
35.02
37.56
39.60
40.86
41.14
40.37
38.66
36.16
33.10
29.74
26.29
22.93
19.74
16.66
13.56
10.22
6.53
2.53
-1.58
-5.51
-9.03
-12.04
-14.63
-16.98
-19.32
-21.75
-24.32
-26.99
-29.77
-32.76
-36.11
-40.05
-44.71
-50.08
-55.84
-61.32
-65.62
-67.74
-66.90
-62.75
-55.48
-45.84
-34.88
-23.67
-13.12
-3.80
4.06
10.43
15.43
19.20
21.90
23.67
24.64
25.02
25.04
25.02
25.32
26.25
27.95
30.35
33.09
35.62
37.42
38.13
37.72
36.44
34.67
32.70
30.69
28.55
26.16
23.48
20.64
17.92
15.66
14.05
13.06
12.48
12.04
11.52
10.88
10.19
9.55
